PATIENT_NAME,ECG_P_Onsets,ECG_P_Peaks,ECG_P_Offsets,ECG_Q_Peaks,ECG_R_Onsets,ECG_R_Offsets,ECG_S_Peaks,ECG_T_Onsets,ECG_T_Peaks,ECG_T_Offsets
patient015/s0152lre,57913.496062992126,57970.25196850394,58006.69291338583,57639.4140625,57611.9921875,57767.581712962965,57741.412237497294,57426.040409653855,57558.34645669291,57622.283996683254
patient015/s0047lre,58179.22530864198,58185.34246575343,58277.6450617284,58014.90454545455,57989.83181818182,58123.73888335579,58176.986363636366,58090.765432098764,58185.34246575343,58213.740740740745
patient015/s0057lre,58010.05630751533,58072.96815286624,58107.45222929936,57823.36795561279,57795.51170277231,57938.714433599525,57888.14484547796,57697.42357954546,57759.7770700637,57819.388535031845
patient145/s0201_re,19429.11704681873,19454.558139534885,19536.072629051618,19191.15909090909,19164.75,19410.063159879333,19272.06818181818,19010.791516606645,19127.93023255814,19264.294897959182
patient030/s0099lre,56464.82327253089,56051.479397587376,56541.840191719915,55546.87785118314,55319.1732200393,54552.34602862172,54025.89313470059,56185.86857923154,55696.62357198906,56245.07419816175
patient030/s0117lre,58798.42990654206,58872.28971962617,58903.57943925234,58416.82407407407,58449.45829837221,58506.16207627118,58526.52777777778,58145.9835989836,58178.6261682243,58309.33662162162
patient030/s0107lre,56464.82327253089,56051.479397587376,56541.840191719915,55546.87785118314,55319.1732200393,54552.34602862172,54025.89313470059,56185.86857923154,55696.62357198906,56245.07419816175
patient030/s0153lre,58203.2676056338,58269.68309859155,58311.62676056338,57826.313757585434,57778.95007501876,58059.59527425135,58052.51048951049,57766.36026361569,57844.97183098592,57876.522396925226
patient265/s0501_re,60676.51349527665,60726.04958677686,60797.115702479336,60337.84426229508,60299.65573770492,60556.01118744335,60456.84426229508,60258.58696018893,60714.95041322314,60426.90696693658
patient192/s0048_re,19345.13333333333,19404.256666666664,19435.19111111111,19295.508196721312,19245.00754352031,19418.52055702918,19434.14754098361,19115.17166666666,19208.082777777778,19266.462222222224
patient120/s0331lre,57647.54166666666,57734.333333333336,57767.24305555556,57427.36551724138,57402.09398936649,57517.302789802794,57508.19310344828,57242.68055555556,57342.40972222222,57421.755751092714
patient224/s0447_re,60825.69387755102,60882.39455782313,60914.65986394558,60624.21621621621,60531.4978272929,60861.76765046296,60742.14189189189,60491.462585034016,60591.462585034016,60681.26530612245
patient276/s0526_re,60465.35526315789,60537.26315789474,60569.88157894737,60249.61437908497,60226.90849673202,60347.07843137255,60315.25490196078,60035.71052631579,60135.69736842105,60216.95394736842
patient043/s0144lre,57745.56979268805,57799.608418546006,57829.41647989915,57392.13359278138,57352.97810218978,57494.78108367043,57499.41605839416,57108.40835551197,57205.486937946494,57282.05620535089
patient043/s0278lre,57909.490683229815,57966.07453416149,58010.53416149069,57722.851851851854,57691.11111111111,57871.1599451699,57846.01851851852,57567.3850931677,57666.53416149069,57730.648989899
patient043/s0141lre,58009.99386503067,58054.93251533742,58099.969325153375,57816.506097560974,57789.74390243903,57917.62436767625,57889.78658536585,57714.4710654145,57745.20858895705,57823.76926751592
patient087/s0330lre,57895.05113636364,57945.38068181818,57985.795454545456,57679.59322033898,57664.20933087784,57783.87683393164,57788.5988700565,57525.608479532166,57645.056818181816,57688.355190058486
patient087/s0321lre,58601.79230769231,58656.56923076923,58695.61538461538,58278.28244274809,58290.749448231094,58513.63071321482,58401.23351016799,58239.68461538461,58301.17692307692,58354.66923076923
patient087/s0326lre,58048.95911949685,58083.46952340113,58146.315015723274,57867.578347996096,57874.40652663166,58045.57668711656,58021.32515337423,57765.64229559748,57916.00689169321,57916.421619496854
patient114/s0012_re,19403.25469336671,19458.304347826088,19507.68335419274,19192.55448717949,19083.47406759906,19309.89342948718,19298.17021276596,18938.331247392576,18961.41304347826,19136.915110725142
patient106/s0030_re,15983.76923076923,16073.28205128205,16116.794871794871,16072.05,16031.475,19093.714530892452,16336.65,15973.51282051282,16073.28205128205,16144.76923076923
patient034/s0158lre,57774.680272108846,57830.251700680274,57864.95238095238,57530.01351351351,57498.832746478874,57643.92091936112,57631.01351351351,57330.76190476191,57430.333333333336,57501.96598639456
patient034/s0109lre,57686.11206896552,57747.39224137931,57784.93534482759,57576.46351931331,57557.96566166176,57769.71585497271,57703.05579399141,57577.34051724138,57662.48275862069,57712.91379310345
patient034/s0118lre,58018.04,58072.06857142857,58106.44,57819.15909090909,57841.73114566985,57947.0812232757,57971.53816407779,57967.14417989418,58055.96571428572,58109.05142857143
patient034/s0123lre,58189.29012345679,58247.37654320987,58282.6975308642,57976.74846625767,57950.60993894165,58123.73888335579,58119.26930122117,58131.00617283951,58200.53703703704,58255.55555555556
patient193/s0008_re,19345.13333333333,19256.394736842107,19301.815789473683,19243.666666666668,19245.00754352031,19442.23076923077,19402.28205128205,19092.763157894737,19192.34210526316,19265.394736842107
patient127/s0342lre,57662.698684210525,57734.80263157895,57776.41842105264,57703.90288253663,57681.7037037037,57849.525703324805,57796.13334134038,57482.08874269006,57581.80263157895,57651.18304093568
patient127/s0383lre,58011.25433853119,57990.79763986014,58126.20623742454,57750.76612903226,57722.98387096774,58055.69112133606,58040.32258064516,57500.324317226885,57703.78399725274,57678.95982142857
patient273/s0511_re,59879.48748717949,59937.11415384615,59969.97097435898,59628.94252873564,59659.70366795367,59763.398148148146,59770.06896551724,59467.72656410256,59567.688923076916,59638.46666666666
patient283/s0542_re,61181.80109126984,61247.888392857145,61290.763392857145,61010.77782036095,60991.64235941746,61050.13369467028,61126.019230769234,60732.09226190476,60832.03869047619,60903.65773809524
patient076/s0253lre,58690.39759036145,58744.31325301205,58791.35542168675,58488.03592814371,58440.08836374224,58588.81825239977,58676.87393465909,58388.31325301205,58432.56626506024,58475.98795180723
patient076/s0250lre,58373.04419889503,58431.89502762431,58471.20994475138,58198.61538461538,58290.749448231094,58571.636820180516,58467.89010989011,58351.67955801105,58422.45303867403,58476.80662983425
patient076/s0247lre,57672.90625,57731.984375,57767.046875,57511.90155440415,57569.97566127122,57746.90362403101,57711.78756476684,57371.80105820106,57487.833333333336,57538.80661375662
patient076/s0319lre,57731.40963855421,57786.51807228916,57825.427710843374,57535.16766467066,57595.247645951036,57643.378088235295,57669.071866925064,57416.0421686747,57487.35542168675,57586.09238909239
patient004/s0020bre,58157.71993134254,58199.81168831169,58256.877694351875,57944.53548387097,57913.89677419355,58059.59527425135,58019.6,57743.8534679649,57867.18831168831,57981.138406557904
patient004/s0020are,58138.347445984764,58169.12738853503,58234.958744431955,57919.53164556962,57890.34810126582,58030.81173537114,57993.16455696202,57684.27611351991,57833.5923566879,57907.38360085308
patient097/s0394lre,56464.82327253089,56051.479397587376,56541.840191719915,55546.87785118314,55319.1732200393,54552.34602862172,54025.89313470059,56185.86857923154,55696.62357198906,56245.07419816175
patient097/s0384lre,57383.64014246805,57428.30936517913,57464.457510999375,57176.86331679074,57147.02092638544,57286.948387096774,57233.018867924526,56927.29103584621,57097.48443327048,57161.94527550807
patient097/s0382lre,58698.8616554054,58798.22522522523,58836.807461307464,58426.78578995157,58381.0948520897,58519.75873776187,58491.16393442623,58145.9835989836,58242.56237006237,58321.878031878034
patient097/s0380lre,58234.56663767054,58291.39641516345,58330.26270488051,57987.48161698284,57998.11989664083,58253.87379190577,58234.96026490066,57920.02403846154,58062.38760186796,58124.65796679033
patient109/s0349lre,59089.27223755092,59145.161772434636,59183.678984364735,58776.56603102779,58752.364112658994,58860.33058166116,58910.4,58507.47569379772,58581.6805281829,58623.982849071836
patient102/s0416lre,57956.461616161614,58011.4191919192,58059.426262626264,57733.15064670447,57725.56167130025,57859.71819631467,57822.70857142857,57507.65958428309,57618.556565656574,57760.493902884264
patient284/s0543_re,60636.30263157895,60704.17763157895,60734.19078947369,60446.535947712415,60419.856209150326,60538.62091503268,60512.30065359477,60233.03289473684,60332.16447368421,60403.99342105263
patient284/s0552_re,60190.48936170213,60257.475177304965,60288.16312056738,59972.83802816901,59946.00212224109,60072.88417288557,60040.58450704225,59724.936170212764,59824.936170212764,59892.37588652482
patient284/s0551_re,60547.08666666667,60610.66,60641.44,60339.41721854304,60311.834437086094,60420.24729022044,60406.87417218543,60114.46666666667,60214.46666666667,60283.833333333336
patient078/s0259lre,58096.84705882353,58102.4149659864,58119.61332237486,57825.774542305786,57778.95007501876,58059.59527425135,58015.56081081081,57671.894544390816,57828.19047619047,57826.19720869239
patient078/s0317lre,57350.01937680021,57395.5796178344,57455.67321288295,57383.04355484941,57366.021518627356,57474.582278481015,57433.5253164557,57125.88654394608,57199.388535031845,57302.24132745657
patient078/s0262lre,58036.16748855231,58084.72027972028,58119.61332237486,57846.24129912991,57778.95007501876,58065.80555555556,58028.47916666666,57671.894544390816,57837.07692307692,57826.19720869239
patient078/s0255lre,57226.624825691084,57239.79591836735,57334.08438602248,57022.17431972789,56984.6248433584,57292.55555555556,57254.32323232323,56865.653203062044,56803.4693877551,56993.847569566744
patient264/s0500_re,60114.35772357724,60182.52032520325,60224.11382113821,59935.57258064516,59902.95161290323,60072.88417288557,60005.40322580645,59675.69918699187,59775.69918699187,59845.47967479675
patient279/s0532_re,60835.29347826087,60889.15217391304,60922.5,60336.83870967742,60373.59445100354,60507.8109114136,60499.76151121606,59975.41304347826,60075.41304347826,60166.47826086957
patient279/s0534_re,61473.16483516483,61527.62637362637,61560.83516483517,60963.358695652176,60949.989130434784,60960.34063461993,61036.52173913043,60597.26373626374,60697.26373626374,60786.56043956044
patient279/s0531_re,61113.96078431373,61168.45098039216,61202.0,60665.94174757282,60650.30097087379,60777.33980582524,60733.94174757282,60343.76470588235,60443.76470588235,60525.45098039216
patient279/s0533_re,61091.3595505618,61144.40449438202,61177.31460674157,60565.77777777778,60550.05555555556,60669.15555555555,60633.71111111111,60202.168539325845,60302.168539325845,60388.6404494382
patient052/s0190lre,57815.87248322148,57875.81879194631,57909.42953020134,57617.18666666667,57594.9,57921.06450634898,57937.18,57521.47171060552,57613.53020134229,57716.55538637229
patient064/s0220lre,57860.0350877193,57921.9649122807,57967.95321637427,57673.33139534884,57630.62043251305,57796.5523255814,57754.482558139534,57529.0701754386,57622.15789473684,57683.33574561404
patient254/s0489_re,56464.82327253089,56051.479397587376,56541.840191719915,55546.87785118314,55319.1732200393,54552.34602862172,54025.89313470059,56185.86857923154,55696.62357198906,56245.07419816175
patient101/s0400lre,57905.58490566038,57967.127358490565,57998.47169811321,57773.62441314554,57778.95007501876,57990.41864658859,58017.80751173709,57894.1179245283,57964.82547169811,58012.33490566038
patient101/s0410lre,57038.96823821339,57098.45105459057,57140.51060794045,49503.7975190076,56841.51473809524,57194.94422043011,51110.389558232935,56500.26693548387,56599.62748138957,56682.47754342432
patient101/s0414lre,58074.75882352941,58150.34117647059,58182.31176470588,57890.461988304094,57888.06856898274,58016.25785093847,58023.90285516924,58063.69411764706,58150.34117647059,58196.09411764706
patient027/s0151lre,58671.05521472393,58727.7055214724,58759.18404907976,58497.689024390245,58675.8455646338,58683.06897463002,58571.44512195122,58614.76687116565,58687.65030674847,58736.0490797546
patient027/s0089lre,58531.241391941396,58588.14473443224,58624.408882783886,58264.769230769234,58248.11282051282,58356.70888036242,58332.02564102564,58161.77087912088,58241.68369963369,58309.34056776557
patient027/s0096lre,57794.84722222222,57851.351851851854,57881.12962962963,57679.17050691245,57620.957350075776,57787.88113516639,57769.43778801843,57557.224061032866,57643.4537037037,57723.51388888889
patient185/s0336lre,58053.98319327731,58105.91596638656,58141.991596638654,57737.275,57734.10557184751,57855.13946400132,57882.340017825314,57527.62184873949,57627.62184873949,57700.28571428572
patient164/s0024are,19643.677243589744,19691.022756410253,19729.070192307692,19360.05128205128,19291.914092664094,19450.673029556652,19525.74358974359,19406.383012820515,19482.177884615383,19540.78237179487
patient164/s0024bre,19643.677243589744,19691.022756410253,19729.070192307692,19314.30769230769,19291.914092664094,19474.383241758245,19539.666666666668,19406.383012820515,19482.177884615383,19540.78237179487
patient253/s0488_re,59508.55137540453,59569.11239731143,59602.26390963406,59212.53435815776,59222.51,59342.234106153395,59314.43814306712,58956.13094349016,59054.304891710235,59122.84777196914
patient204/s0425_re,60180.63304473304,60254.43653198653,60292.35156325156,60181.14226755218,60156.773410815935,60420.24729022044,60293.55789473684,59953.930038480044,60053.930038480044,60125.29855699856
patient219/s0441_re,56464.82327253089,56051.479397587376,56541.840191719915,55546.87785118314,55319.1732200393,54552.34602862172,54025.89313470059,56185.86857923154,55696.62357198906,56245.07419816175
patient009/s0035_re,16545.0,16610.93181818182,16642.590909090908,16353.444444444443,16329.466666666667,19093.714530892452,16557.31111111111,15771.815233785823,16238.181818181818,15938.575791855204
patient142/s0351lre,57364.948472001415,57463.294762641905,57452.990266737324,57207.0243902439,57163.70503900485,57289.32126291377,57281.2163441134,57015.416282844235,57092.895209838316,57249.85225225225
patient058/s0216lre,57415.81045751634,57475.39215686275,57521.856209150326,57206.42207792208,57210.36380952381,57331.508719646794,57308.7987012987,57056.986928104576,57155.856209150326,57227.66666666666
patient287/s0548_re,60111.783270911365,60179.50837988827,60225.15909280066,60042.92114662515,60111.534484883334,60331.0603654485,60268.41666666666,59972.799146899706,60176.86592178771,60121.53579304495
patient287/s0547_re,59977.68583545377,60059.85483870968,60095.160079163135,60062.85490196079,60111.534484883334,60113.90673449612,60157.52941176471,59996.87634408602,60055.10752688172,60121.53579304495
patient166/s0275lre,57432.11403508772,57523.60526315789,57572.5701754386,57706.45217391304,57679.53043478261,57818.30434782609,57778.44347826087,57423.60526315789,57523.60526315789,57599.04385964912
patient216/s0438_re,56464.82327253089,56051.479397587376,56541.840191719915,55546.87785118314,55319.1732200393,54552.34602862172,54025.89313470059,56185.86857923154,55696.62357198906,56245.07419816175
patient021/s0097lre,58505.24803149606,58513.52503456152,58559.116367133494,58205.07344632768,58185.29119318182,58356.70888036242,58293.22598870056,57980.323585983046,58079.61492456573,58151.98335036365
patient021/s0065lre,57770.843971631206,57824.52482269504,57856.68794326241,57514.83098591549,57487.41549295775,57643.92091936112,57606.48591549296,57323.58865248227,57416.94326241135,57487.52482269504
patient021/s0073lre,57304.03363661429,57369.94192859112,57409.20426661152,57268.13501694915,57229.475822102424,57359.34205298013,57357.30337078652,56999.482699200445,57099.41011855528,57166.39092224979
patient174/s0325lre,57415.43846153846,57497.61538461538,57540.876923076925,57626.38167938931,57599.3893129771,57765.87190485475,57689.29007633588,57397.61538461538,57497.61538461538,57564.4
patient174/s0300lre,57662.91095890411,57741.80136986302,57783.49315068493,57817.63265306123,57789.89115646258,57920.727891156464,57881.537414965984,57615.86301369863,57715.86301369863,57779.30136986302
patient174/s0324lre,57651.424,57731.016,57773.12,57877.63492063492,57849.73015873016,57997.1708762713,57941.5,57631.016,57731.016,57796.304
patient260/s0496_re,61402.26229508197,61455.83606557377,61495.63934426229,61038.10569105691,60957.8573970758,61143.34146341463,61105.634146341465,60737.99180327869,60837.96721311475,60902.688524590165
patient128/s0182_re,19952.9,20006.7,20048.525,19337.179487179485,19588.024390243903,19747.463414634145,19720.048780487807,19415.200947603123,19351.65,19536.631235431236
patient228/s0451_re,60562.70338983051,60592.720338983054,60630.74248120301,60168.24369747899,60236.53020611229,60420.24729022044,60352.64705882353,59959.42194625909,60042.86440677966,60180.180888866
patient197/s0350lre,57343.71910521714,57382.20485372341,57446.81215389099,57026.70733977802,56991.08923169994,57194.94422043011,57131.20472440945,56739.55792771786,56778.28277925532,56923.83635794744
patient197/s0403lre,58666.18803418803,58723.76068376069,58785.74358974359,58435.7240777667,58409.4389332004,58519.75873776187,58598.28996344301,58198.69230769231,58283.13675213675,58344.74358974359
patient242/s0471_re,60250.44055944056,60294.195804195806,60328.62237762238,59972.194444444445,59946.00212224109,60084.10416666666,60033.98611111111,59743.47552447552,59843.44755244755,59907.04895104895
patient024/s0086lre,57599.16129032258,57644.79838709677,57679.31451612903,57269.448,57243.752838537315,57424.84356813165,57349.056,57009.43548387097,57109.29032258064,57174.217741935485
patient024/s0084lre,58139.15,58189.458333333336,58226.225,57801.79338842975,57671.14800443459,57908.40495867769,57870.19834710744,57524.325,57623.71666666667,57690.85833333333
patient024/s0083lre,57745.04958677686,57804.90082644628,57843.35537190083,57410.7131147541,57358.48905109489,57517.04918032787,57485.45081967213,57143.86776859504,57243.86776859504,57312.65289256199
patient024/s0094lre,58422.61486486487,58474.33108108108,58513.25,58161.85906040268,58185.29119318182,58298.28576501623,58243.68456375839,57984.0,58084.0,58155.06756756757
patient099/s0387lre,56464.82327253089,56051.479397587376,56541.840191719915,55546.87785118314,55319.1732200393,54552.34602862172,54025.89313470059,56185.86857923154,55696.62357198906,56245.07419816175
patient099/s0388lre,58396.56050955414,58450.66242038216,58478.68152866242,58113.490147783246,58185.29119318182,58245.283475145545,58199.81532691447,57960.50434782609,58035.19108280255,58113.27388535032
patient099/s0397lre,58498.69047619047,58554.30952380953,58585.97619047619,58197.31522253788,58185.29119318182,58271.03677262931,58237.88213900862,57939.355492864255,57988.59523809524,58066.88888888889
patient099/s0419lre,57540.96666666667,57593.36666666667,57623.90666666667,57294.78145695364,57306.446233766226,57424.84356813165,57393.71523178808,57079.14666666667,57179.02,57267.44666666666
patient212/s0434_re,60525.44993239817,60499.638420920295,60541.88739418323,60450.86948650428,60423.91458196181,60717.88246527778,60666.09032258065,60246.13592191989,60210.67500628615,60416.81684130472
patient116/s0302lre,58712.99942249942,58772.333333333336,58822.2905982906,58433.33050847457,58410.96610169492,58517.44915254237,58490.17796610169,58169.94017094017,58269.02564102564,58334.51282051282
patient105/s0303lre,58533.05405405405,58605.30405405405,58780.496608481175,58528.161073825504,58481.14765100672,58638.08053691275,58609.10738255033,58339.14864864865,58439.14864864865,58512.10135135135
patient054/s0195lre,58088.34117647059,58147.09411764706,58200.30392156863,57912.40935672515,57878.818713450295,58016.04678362573,57978.24561403509,57663.4262983039,57785.49411764706,57832.848749781435
patient054/s0218lre,58799.725190839694,58856.69465648855,58902.63358778626,58531.49242424242,58575.52536231883,58631.454545454544,58602.780303030304,58304.69465648855,58396.36641221374,58470.725190839694
patient054/s0197lre,58150.420382165605,58203.16560509554,58249.65605095541,57944.082278481015,57911.44936708861,58085.94176215374,58035.9095505618,57661.07769491525,57838.13375796178,57907.38360085308
patient054/s0192lre,58530.08917197452,58586.229299363054,58641.75796178344,58364.22784810127,58333.38607594937,58513.63071321482,58478.50632911392,58207.1847133758,58305.44585987261,58380.15286624204
patient261/s0497_re,60441.3791532358,60496.61681750558,60536.83644309447,60133.289505796216,60104.28007931665,60245.39386684907,60214.13492063492,59791.588457723774,59868.6113935036,60062.4644993354
patient225/s0448_re,60347.220551303515,60225.49836530079,60441.32369648409,60059.841339927,60031.99275874249,60245.39386684907,60178.0625,59935.74222609706,60014.857817494914,59963.22342143028
patient205/s0426_re,59957.57777777778,60038.91851851852,60085.014814814815,60190.42647058824,60168.56617647059,60102.68674071503,60272.42647058824,59938.91851851852,60038.91851851852,60112.15555555555
patient062/s0212lre,59050.2961393597,59108.42312348668,59154.9056362658,58766.90322580645,58752.364112658994,58874.32258064516,58857.81935483871,58405.12785266249,58565.15570352435,58623.982849071836
patient153/s0391lre,57226.624825691084,57289.64375,57334.08438602248,57022.17431972789,56988.029864532014,57201.09027777778,57120.416149068325,56865.653203062044,56828.11875,56993.847569566744
patient227/s0450_re,60941.98148148148,61003.29012345679,61044.364197530864,60680.095503066084,60569.61448958282,60864.885376756065,60851.079754601225,60562.864197530864,60662.77777777778,60727.01851851852
patient129/s0189_re,56464.82327253089,56051.479397587376,56541.840191719915,55546.87785118314,55319.1732200393,54552.34602862172,54025.89313470059,56185.86857923154,55696.62357198906,56245.07419816175
patient083/s0268lre,57276.84246575343,57329.47260273973,57379.29452054795,57041.6462585034,57076.66610923258,57216.284274193546,57168.19727891157,56848.732876712325,56947.15068493151,57073.79986365407
patient083/s0290lre,59058.20338983051,59113.70338983051,59145.65254237288,58715.924369747896,58752.364112658994,58860.33058166116,58873.19327731092,58475.83050847457,58575.77966101695,58646.08474576271
patient083/s0286lre,58630.650406504064,58684.88617886179,58731.756097560974,58312.25,58357.34631039916,58500.03405172414,58468.645161290326,58051.796457474426,58191.13821138212,58262.46341463415
patient083/s0272lre,57716.77248677249,57767.0582010582,57803.97883597884,57547.78947368421,57533.46633986928,57643.378088235295,57669.071866925064,57406.54497354497,57500.87830687831,57560.22751322751
patient176/s0188_re,19106.905673758865,19127.239592969476,19201.99054373522,18888.912280701756,18852.9861379755,19188.535635964916,19100.0,18975.907077724707,18922.462997224793,18969.125768321515
patient175/s0009_re,19349.744680851065,19406.957446808512,19442.42553191489,19101.666666666668,19041.935606060604,19216.229166666668,19175.375,18903.44680851064,18997.40425531915,19067.340425531915
patient065/s0221lre,57655.0,57720.72222222222,57789.145454545454,57482.60072899581,57489.34905591866,57614.95379629629,57581.09664661928,57306.532539682536,57412.1746031746,57485.78376623377
patient065/s0229lre,58189.29104477612,58251.76119402985,58290.14179104478,57911.7925925926,57881.84444444445,58114.96936383478,58226.229629629626,57619.873035826524,57761.07462686567,57789.457259585164
patient065/s0282lre,57425.19417475728,57500.23300970874,57537.90291262136,57039.29807692308,57009.15384615384,57310.66131667721,57196.49038461538,56755.55970641597,56838.98058252427,56917.12621359223
patient065/s0226lre,58174.32608695652,58237.19565217391,58273.76811594203,57908.424460431655,57881.92805755396,58085.94176215374,58114.13669064748,57661.07769491525,57723.188405797104,57827.46277966102
patient233/s0458_re,60343.11304347826,60422.6695652174,60453.97391304348,60050.137931034486,60004.25740822645,60113.90673449612,60130.41471325372,59744.2347826087,59843.68695652174,59923.6695652174
patient233/s0483_re,59970.735537190085,60054.01652892562,60092.52892561984,59887.58196721312,59865.91803278688,59994.04918032787,59958.60655737705,59601.90082644628,59701.90082644628,59780.8347107438
patient233/s0459_re,62297.85123966942,62375.42148760331,62407.71900826446,61120.58177114829,61063.42431728351,62133.22950819672,61071.07794273595,61762.19834710744,61860.80991735537,61940.27272727273
patient233/s0482_re,60801.61417322834,60883.16535433071,60918.92125984252,60654.765625,60635.640625,60766.609375,60728.2578125,60395.18897637796,60495.11811023622,60573.76377952756
patient233/s0457_re,60872.93859649123,60950.93859649123,60981.12280701754,60533.57391304348,60511.06086956522,60717.88246527778,60603.93043478261,60223.32456140351,60323.21929824561,60402.08771929824
patient138/s0005_re,19369.308771929824,19370.717368421054,19411.14789473684,19245.093333333334,19245.00754352031,19429.399698340872,19403.824561403508,19135.92543859649,19225.02105263158,19293.747368421053
patient150/s0287lre,57340.765625,57423.1953125,57467.296875,57597.53844711178,57489.37209302326,57455.4470875659,57638.17829457364,57284.375,57382.453125,57449.7734375
patient111/s0203_re,19537.53202774378,19370.717368421054,19411.14789473684,19246.52,19243.54090909091,19429.399698340872,19380.26,19135.92543859649,19225.02105263158,19293.747368421053
patient171/s0364lre,57358.97714913804,57340.40689655172,57467.08284160592,57358.39726027397,57366.021518627356,57473.547632747,57471.58219178082,57181.84827586207,57281.84827586207,57365.31724137931
patient159/s0390lre,57977.46428571428,58031.583333333336,58074.267857142855,57767.96449704142,57662.56779053084,57877.49302626711,57892.74556213018,57614.95238095238,57703.07738095238,57792.517857142855
patient002/s0015lre,57801.87333333334,57853.38,57889.44,57545.39072847682,57483.22516556292,57668.90066225165,57618.11920529801,57311.65244482496,57366.02,57469.83893369175
patient240/s0468_re,60403.68831168831,60469.954545454544,60499.68831168831,60171.85806451613,60144.98064516129,60420.24729022044,60280.70967741936,59968.94155844156,60068.94155844156,60138.44155844156
patient247/s0479_re,58077.03105590062,58124.08074534161,58152.8447204969,57852.456790123455,57832.273642404936,57986.70366392171,57930.67283950617,57671.894544390816,57755.62732919255,57840.40332016967
patient022/s0066lre,57886.216,57942.704,57984.816,57591.34920634921,57562.97619047619,57682.03968253968,57647.119047619046,57296.728,57389.912,57471.592
patient022/s0074lre,44099.55319148936,44158.02127659575,44200.07446808511,43800.14736842105,43770.4,43892.36842105263,43856.27368421053,43487.47872340425,43576.34042553192,43647.81914893617
patient022/s0149lre,59120.34108527132,59176.62015503876,59221.70542635659,58837.20769230769,58804.838461538464,58860.33058166116,58891.07692307692,58435.80211555115,58587.58139534884,58623.982849071836
patient155/s0301lre,57882.4527027027,57938.56081081081,57991.18243243243,57656.409395973154,57615.950953113905,57771.20134228188,57733.10738255033,57478.80405405405,57578.41891891892,57644.43243243243
patient223/s0445_re,60176.36428571429,60242.3,60275.56428571429,59882.70921985816,59846.27495175076,60072.88417288557,59975.67375886525,59657.014285714286,59752.78571428572,59824.07142857143
patient223/s0446_re,60226.357142857145,60294.93571428571,60328.19285714286,59938.31205673759,59946.00212224109,60072.88417288557,60029.13475177305,59706.607142857145,59804.87142857143,59874.88571428572
patient092/s0362lre,57846.16197183099,57901.21830985916,57939.54929577465,57572.181818181816,57561.89305391578,57671.36784126984,57688.85314685314,57324.036,57396.288732394365,57500.772
patient092/s0411lre,58077.28571428572,58127.49206349206,58165.03174603175,57752.433070866144,57742.59090909091,57898.813166361746,57838.90551181103,57535.51587301587,57635.49206349206,57713.75396825397
patient092/s0358lre,57926.0,57976.832167832166,58014.804195804194,57649.625,57615.925705400485,57767.99305555556,57737.24305555556,57456.19989936745,57573.55944055944,57668.030334015
patient092/s0354lre,57912.94117647059,57963.35947712418,58001.66013071896,57670.61688311688,57612.01743521342,57796.49652777778,57761.50123918174,57494.72439544808,57587.11111111111,57659.88888888889
patient117/s0292lre,58404.55579844551,58497.16030534351,58550.6106870229,58202.32575757576,58174.86363636364,58298.28576501623,58268.45527622948,57941.70229007633,58041.70229007633,58114.5572519084
patient117/s0291lre,57648.046875,57684.234375,57743.875,57384.16279069767,57359.22480620155,57476.40800865801,57456.651162790695,57119.015625,57219.0078125,57290.0625
patient152/s0004_re,19601.04651162791,19629.74418604651,19655.837209302324,19246.204545454544,19204.045454545456,19355.227272727272,19332.0,18990.39950980392,18947.25581395349,19249.669590643276
patient221/s0443_re,60188.020676691725,60259.325,60291.56259398496,59935.28333333333,59946.00212224109,60072.88417288557,60061.583333333336,59701.7734962406,59800.890601503765,59871.35639097745
patient070/s0235lre,58386.49673202614,58441.52941176471,58496.25490196078,58159.92857142857,58144.62949260042,58272.53246753247,58223.81168831169,57935.875,58014.50326797386,58094.24836601308
patient103/s0332lre,58403.2,58446.62,58483.14,58113.490147783246,58144.62949260042,58245.283475145545,58187.82178217822,57887.75,57932.13,58090.36766126741
patient290/s0553_re,59783.68595041322,59856.289256198346,59893.49586776859,59527.606566037735,59566.67819047619,59763.398148148146,59636.598360655735,59287.05785123967,59384.19834710744,59461.25619834711
patient182/s0308lre,57357.455882352944,57415.044117647056,57454.81617647059,57081.34306569343,57113.61320850202,57308.28844086021,57181.299270073,56882.57352941176,56982.57352941176,57058.970588235294
patient269/s0508_re,61451.77281420765,61507.92219945355,61543.99050546448,61188.3813559322,61097.20927962517,61050.13369467028,61301.46610169492,60844.50423497268,60944.475273224045,61013.97342896175
patient274/s0512_re,60540.21100917431,60602.09174311927,60644.22018348624,60162.545454545456,60133.62727272727,60215.59129901961,60221.15454545455,59708.56880733945,59762.61467889908,60013.7320783551
patient020/s0062lre,57361.77385661585,57397.11382113821,57465.732832570335,57162.89140436877,57130.29732112143,57322.9435483871,57284.3064516129,56950.80692475221,56986.227642276426,57122.79443530824
patient020/s0069lre,58308.463917525776,58368.113402061856,58402.50515463918,57871.051020408166,57828.47141387117,58059.59527425135,57967.34693877551,57581.37160269513,57597.41237113402,57689.16494845361
patient020/s0079lre,57917.850746268654,57976.21641791045,58010.28358208955,57636.31111111112,57615.925705400485,57767.17037037037,57729.28888888889,57418.485074626864,57510.58208955224,57584.67910447761
patient187/s0207_re,19106.905673758865,18883.871980676333,19201.99054373522,18888.912280701756,18852.9861379755,19093.714530892452,18761.204545454544,18975.907077724707,18829.138647342996,18969.125768321515
patient088/s0413lre,58038.204545454544,58086.931818181816,58122.13636363636,57843.57627118644,57819.31073446327,57953.835444522636,57906.64971751413,57682.21590909091,57780.96022727273,57847.96590909091
patient088/s0339lre,57793.61111111111,57842.10416666666,57882.333333333336,57532.47586206897,57507.31034482759,57643.92091936112,57600.43448275862,57312.756944444445,57412.333333333336,57482.84722222222
patient088/s0343lre,56464.82327253089,56051.479397587376,56541.840191719915,55546.87785118314,55319.1732200393,54552.34602862172,54025.89313470059,56185.86857923154,55696.62357198906,56245.07419816175
patient088/s0352lre,57453.19379844961,57501.651162790695,57544.79069767442,57153.53846153846,57131.24615384615,57296.00620915032,57224.08461538461,56880.73643410853,56980.73643410853,57051.8527131783
patient151/s0206_re,19910.039743589747,19949.760256410256,19983.570192307692,19337.179487179485,19416.89057350033,19626.999564459933,19795.08108108108,19406.383012820515,19536.440384615387,19540.78237179487
patient208/s0430_re,59997.79389312977,60060.32061068702,60105.30534351145,60301.658040488925,60277.31555576776,60331.0603654485,60422.11363636364,59986.70992366412,60060.32061068702,60130.916030534354
patient208/s0429_re,56464.82327253089,56051.479397587376,56541.840191719915,55546.87785118314,55319.1732200393,54552.34602862172,54025.89313470059,56185.86857923154,55696.62357198906,56245.07419816175
patient059/s0208lre,57975.57738095238,58048.35119047619,58081.60119047619,57841.45562130178,57841.73114566985,57947.0812232757,57973.15955200457,57948.88095238096,58029.00595238096,58081.017857142855
patient179/s0176_re,19483.57398932113,19485.04,19520.48,19270.43137254902,19270.466457680253,19416.56862745098,19367.72549019608,19169.92429443173,19257.7,19322.1
patient165/s0323lre,58295.75675675676,58369.31531531532,58403.63963963964,58045.88392857143,58012.330357142855,58183.442090513636,58150.482142857145,57738.01801801802,57838.01801801802,57906.26126126127
patient165/s0322lre,58567.82882882883,58639.43243243243,58676.64864864865,58330.955357142855,58301.125,58500.03405172414,58434.99107142857,58023.42342342343,58123.42342342343,58192.47747747748
patient141/s0307lre,58153.67360571695,58216.43708609272,58264.09933774835,57961.17763157895,57935.17105263158,58085.94176215374,58034.0393939394,57822.5959288938,57893.03311258278,57968.953642384105
patient019/s0070lre,57863.939024390245,57928.76829268293,57979.73170731707,57682.47878787879,57642.73154362416,57769.18585632612,57742.09696969697,57426.040409653855,57490.939024390245,57614.55576845502
patient019/s0077lre,56464.82327253089,56051.479397587376,56541.840191719915,55546.87785118314,55319.1732200393,54552.34602862172,54025.89313470059,56185.86857923154,55696.62357198906,56245.07419816175
patient019/s0058lre,57176.40718562874,57233.68862275449,57288.87425149701,57002.70238095238,56981.56547619047,57109.625,57066.47023809524,56865.653203062044,56836.36526946108,56928.7245508982
patient139/s0223_re,19910.039743589747,19949.760256410256,19983.570192307692,19337.179487179485,19416.89057350033,19626.999564459933,19693.044776119405,19406.383012820515,19536.440384615387,19540.78237179487
patient121/s0311lre,56464.82327253089,56051.479397587376,56541.840191719915,55546.87785118314,55319.1732200393,54552.34602862172,54025.89313470059,56185.86857923154,55696.62357198906,56245.07419816175
patient085/s0297lre,57113.96808510638,57211.244680851065,57258.7340425532,57255.71380090498,57110.07382711599,57314.78172043011,57359.64835972851,57089.28723404255,57188.09574468085,57261.72340425532
patient085/s0296lre,57549.373239436616,57649.34507042253,57692.19014084507,57682.06002475247,57671.14800443459,57873.36006960924,57877.67832167832,57549.34507042253,57649.34507042253,57712.380281690144
patient085/s0345lre,57901.92700729927,57990.58394160584,58036.75182481752,57965.353493710994,57899.43659395746,58012.35369802318,58198.985507246376,57873.02919708029,57973.02919708029,58041.81751824817
patient085/s0298lre,58653.35164835165,58747.27472527473,58796.593406593405,58627.46957697508,58870.54347826087,58968.93284204672,59031.17391304348,58539.12087912088,58639.12087912088,58713.63736263736
patient095/s0373lre,58158.95798319328,58217.26890756303,58254.12605042017,57821.80833333333,57712.1840060436,57976.990822897125,57939.125,57520.56302521008,57619.91596638656,57690.73949579832
patient095/s0377lre,57709.842975206615,57770.47107438016,57805.57024793389,57381.401639344265,57366.021518627356,57483.65725686528,57496.69672131148,57083.87603305785,57183.69421487604,57255.57851239669
patient095/s0417lre,58041.62043795621,58109.18978102189,58140.57664233576,57833.39855072464,57824.759966556456,57955.83948998594,57945.31884057971,57581.01459854015,57680.93430656935,57746.67153284672
patient095/s0369lre,58242.180645161294,58304.49032258065,58336.74838709678,58010.455128205125,57968.64193548387,58152.766485036824,58111.15384615384,57790.28387096775,57889.89032258064,57960.17419354839
patient243/s0472_re,59690.55737704918,59758.530054644805,59795.901639344265,59640.51973375557,59712.24599761052,59763.398148148146,59715.22826086957,59472.96721311475,59572.39344262295,59640.49180327869
patient195/s0337lre,57906.529437715566,58002.57419354839,58037.823714606566,57965.353493710994,57942.206506147544,58069.70970847085,58174.429487179485,57887.23712601267,58002.57419354839,58048.28513275046
patient186/s0293lre,57759.80689655172,57846.972413793104,57899.05517241379,57844.2818835455,57955.60958904109,58059.59527425135,58091.12328767123,57746.972413793104,57846.972413793104,57926.0
patient066/s0225lre,57884.00176283935,57940.528969326595,57987.003173110825,57639.78480902778,57612.463087248325,57810.7761627907,57761.590604026846,57516.3632127193,57618.85979551064,57735.27933250414
patient066/s0231lre,58187.78947368421,58257.62406015037,58299.3007518797,57942.53731343283,57911.38805970149,58059.59527425135,58061.55223880597,58176.51879699248,58254.31578947369,58311.9022556391
patient066/s0280lre,57854.50746268657,57910.80597014925,57967.31343283582,57640.15555555555,57605.54814814815,57787.88113516639,57768.11851851852,57522.526754385966,57679.37313432836,57747.0447761194
patient131/s0273lre,57911.26020408164,57981.36224489796,58019.06122448979,57800.29441624365,57671.14800443459,57904.1116751269,57868.94923857868,57622.5213131005,57770.59693877551,57829.82142857143
patient037/s0120lre,58059.13740458015,58113.19847328244,58154.770992366415,57768.371212121216,57745.22727272727,57898.813166361746,57867.621212121216,57532.49618320611,57632.24427480916,57701.31297709924
patient037/s0112lre,58867.37226277372,58920.76642335767,58961.52554744526,58591.36956521739,58568.01449275362,58671.0121564482,58691.760869565216,58380.970802919706,58479.17518248176,58552.78102189781
patient130/s0166_re,19910.039743589747,19949.760256410256,19983.570192307692,19337.179487179485,19416.89057350033,19626.999564459933,19714.916666666668,19406.383012820515,19536.440384615387,19540.78237179487
patient177/s0366lre,58584.00083598726,58648.261524681526,58694.87585589172,58390.551812249396,58342.30483921693,58519.75873776187,58480.93984962406,58222.6611066879,58321.616679936305,58395.76705812102
patient093/s0396lre,58637.9125,58710.29375,58747.99375,58416.87577639752,58351.22360248448,58522.068322981366,58482.70186335404,58238.1375,58337.7875,58411.38125
patient093/s0378lre,58238.00740740741,58293.48888888889,58365.94814814815,57977.955882352944,57943.356464116034,58088.622875932386,58043.90441176471,57712.57724056604,57809.333333333336,57856.525925925926
patient093/s0367lre,58740.06140996394,58800.15273382883,58831.25822356318,58392.220338983054,58373.58836374224,58508.47166149068,58498.37717013889,58222.6611066879,58173.029619545225,58411.28521959459
patient093/s0375lre,59042.38888888889,59103.142857142855,59164.15873015873,58743.53543307087,58699.88976377953,58846.33858267716,58805.18110236221,58435.80211555115,58554.53174603175,58601.88095238096
patient093/s0371lre,57895.328571428574,57945.328571428574,58001.19285714286,57827.29787234042,57776.32624113475,57928.86524822695,57887.04255319149,57622.5213131005,57725.857142857145,57790.92142857143
patient140/s0019_re,19483.57398932113,19403.208237986273,19442.36441647597,19269.587431693988,19283.036363636365,19418.52055702918,19408.56363636364,19126.762013729975,19222.160183066364,19294.82780320366
patient184/s0363lre,58240.01212121212,58293.7393939394,58331.15151515151,58048.98795180723,58026.32530120482,58204.53951080226,58141.676958818156,57893.49696969697,57977.1393939394,58067.320865508365
patient282/s0539_re,60735.8,60815.566666666666,60845.04166666666,60389.09917355372,60361.12396694215,60530.41329439578,60496.8347107438,60183.964138134594,60213.76666666667,60280.5
patient172/s0304lre,57559.6484375,57656.6640625,57703.625,57673.833850096096,57602.2859990697,57825.992248062015,57783.96899224806,57503.65625,57603.65625,57676.765625
patient245/s0480_re,60869.188524590165,60920.598360655735,60965.516393442624,60594.16976902174,60531.4978272929,60769.7271012931,60692.78048780488,60321.38524590164,60419.75409836065,60489.22131147541
patient245/s0474_re,60083.792207792205,60135.142857142855,60173.26623376623,59856.8,59884.434822845054,60027.85667971618,59973.367741935486,59654.27272727273,59754.24025974026,59822.85064935065
patient029/s0098lre,57763.17309847318,57816.823294579066,57848.30904188262,57404.26380368098,57364.0,57498.67610531545,57496.64977958397,57138.404223280566,57235.573714806,57310.593395433534
patient029/s0092lre,57789.88648648649,57847.248648648645,57890.15135135135,57672.25268817204,57629.45161290323,57787.88113516639,57765.51419602264,57580.93948391844,57644.7945945946,57716.37837837838
patient029/s0122lre,57587.52469135803,57650.23456790124,57688.154320987655,57421.31901840491,57372.78698224852,57517.302789802794,57545.926380368095,57262.7962962963,57360.91358024691,57431.64814814815
patient268/s0505_re,60419.58646616541,60473.4060150376,60525.18045112782,60148.91044776119,60227.002337803555,60420.24729022044,60439.22388059701,60132.458773784354,60197.96992481203,60287.077353437526
patient044/s0146lre,57782.62162162162,57833.64864864865,57862.85810810811,57520.8322147651,57488.39829706718,57664.79833112583,57628.26174496644,57317.06829884388,57341.44594594595,57470.92902121078
patient044/s0143lre,50555.921757035,50614.45015442691,50661.017072752235,48509.34013605442,50216.41739130435,50500.99671052632,48603.19047619047,49973.356297185994,50067.18230954015,50148.256348661635
patient044/s0159lre,56464.82327253089,56051.479397587376,56541.840191719915,55546.87785118314,55319.1732200393,54552.34602862172,54025.89313470059,56185.86857923154,55696.62357198906,56245.07419816175
patient044/s0142lre,58174.983050847455,58223.85875706215,58251.57062146893,57964.286516853936,57911.01459951069,58098.26966292135,58052.2191011236,57661.07769491525,57811.85310734464,57907.38360085308
patient008/s0028lre,57819.24107142857,57896.875,57940.78571428572,57754.345132743365,57712.34193548387,57787.88113516639,57968.69070208729,57473.02678571428,57570.49107142857,57657.63392857143
patient008/s0037lre,58569.26229508197,58641.31967213115,58672.69672131148,58274.74796747968,58248.0406504065,58356.70888036242,58395.15447154472,58035.458088523315,58101.05737704918,58187.18032786885
patient008/s0068lre,57970.28318584071,58043.55752212389,58076.902654867255,57679.92105263158,57649.01754385965,57835.87818627451,57805.02631578947,57389.566371681416,57488.95575221239,57571.53097345133
patient079/s0263lre,56464.82327253089,56051.479397587376,56541.840191719915,55546.87785118314,55319.1732200393,54552.34602862172,54025.89313470059,56185.86857923154,55696.62357198906,56245.07419816175
patient079/s0256lre,57745.56979268805,57799.608418546006,57829.41647989915,57391.3051948052,57379.06493506493,57472.51298701299,57501.75324675325,57108.40835551197,57205.486937946494,57282.05620535089
patient079/s0269lre,57900.15172448568,57957.388614360636,58000.73300726099,57646.36025354214,57584.51058877524,57769.18585632612,57730.700787401576,57448.64456434046,57544.50050423558,57614.55576845502
patient079/s0257lre,58225.00411184211,58283.30548878205,58296.46768363216,57976.14126818138,57956.867970177256,58114.96936383478,58070.9606741573,57942.728148496244,57871.83413461538,57945.13171073718
patient217/s0439_re,59992.3732892562,60056.98370247934,60091.33514049587,59684.94257584323,59692.90241998439,59763.398148148146,59782.496062992126,59460.78102479339,59560.71943801653,59635.23223140496
patient035/s0110lre,58024.39884393064,58071.13294797688,58114.05780346821,57844.19540229885,57817.40804597701,57950.31034482759,57910.0632183908,57704.901734104045,57804.56647398844,57869.59537572254
patient035/s0119lre,58156.92682926829,58207.865853658535,58253.25,57987.87272727273,57954.98787878788,58071.92317501896,58048.47878787879,57822.5959288938,57943.93292682927,57993.32317073171
patient035/s0124lre,58005.60674157304,58055.83707865168,58106.808988764045,57852.20111731844,57822.95530726257,57954.31843575419,57917.99441340782,57646.822924270076,57705.45505617977,57814.47960526316
patient035/s0145lre,57922.53293413173,57969.976047904194,58021.46107784431,57738.36309523809,57714.18452380953,57871.1599451699,57805.16666666666,57574.83411284891,57709.838323353295,57760.493902884264
patient259/s0495_re,60219.43965517241,60288.11206896552,60334.48275862069,60058.38305759326,60064.717839601064,60113.90673449612,60148.97442250664,59862.06896551724,59961.09482758621,60033.99137931035
patient293/s0557_re,60500.98966165413,60564.229323308275,60599.93327067669,60253.072114915616,60226.10350209735,60420.24729022044,60308.18243243243,60022.58458646617,60122.578007518794,60200.77772556391
patient293/s0558_re,60525.44993239817,60499.638420920295,60541.88739418323,60450.86948650428,60423.91458196181,60717.88246527778,60666.02097902098,60246.13592191989,60210.67500628615,60416.81684130472
patient014/s0046lre,57651.27950310559,57707.90062111801,57750.00621118012,57465.06172839506,57451.20987654321,57562.09259259259,57526.05555555556,57259.344246031746,57334.96273291925,57411.86335403727
patient014/s0056lre,57872.39677011909,57937.70748827138,57972.119379285454,57650.24076451291,57598.17923620026,57789.42905535268,57748.36805555556,57504.464499484006,57594.758949837604,57656.60647780585
patient014/s0071lre,58105.35294117647,58146.509803921566,58180.34640522876,57884.72077922078,57884.58340735806,58044.830322505935,58003.59310404725,57663.4262983039,57807.88888888889,57832.848749781435
patient202/s0422_re,61030.11111111111,61101.71428571428,61145.142857142855,61028.086614173226,61017.55905511811,61050.13369467028,61110.669291338585,60769.02380952381,60869.02380952381,60937.54761904762
patient202/s0421_re,60235.61494252874,60315.79310344828,60360.057471264365,60399.13142857143,60380.13142857143,60518.41142857143,60471.57142857143,60215.79310344828,60315.79310344828,60382.833333333336
patient071/s0236lre,57874.708333333336,57931.975,57974.71666666667,57595.87603305785,57560.80991735537,57690.217421915004,57657.90082644628,57324.036,57408.941666666666,57500.772
patient137/s0392lre,58473.390065681444,58531.34977422003,58563.06325944171,58254.88816162762,58233.659149982435,58356.70888036242,58342.112,58053.032019704435,58150.1435139573,58232.833538587845
patient086/s0316lre,57966.982035928144,58020.149700598806,58058.88023952096,57821.732142857145,57787.958333333336,58055.69112133606,57995.07738095238,57710.60630746653,57825.2994011976,57837.28566368956
patient146/s0007_re,19369.308771929824,19370.717368421054,19411.14789473684,19269.587431693988,19245.00754352031,19429.399698340872,19413.07246376812,19135.92543859649,19225.02105263158,19293.747368421053
patient248/s0481_re,59807.99193548387,59860.37903225807,59890.87096774193,59488.232,59463.904,59763.398148148146,59603.776,59230.35483870968,59329.31451612903,59404.26612903226
patient096/s0395lre,58391.31896551724,58439.887931034486,58473.379310344826,58005.64102564102,57970.92486849391,58183.442090513636,58147.60683760684,57740.887931034486,57839.1724137931,57898.84482758621
patient096/s0385lre,58524.48818897638,58573.9842519685,58611.086614173226,58192.3046875,58185.29119318182,58356.70888036242,58299.9453125,57980.323585983046,58015.362204724406,58090.72307039864
patient096/s0379lre,58240.040201005024,58286.88442211056,58331.89949748744,58088.075,57983.77308005026,58204.53951080226,58204.630376940135,58090.765432098764,58136.52763819096,58198.417085427136
patient096/s0381lre,57981.23493975904,58028.156626506025,58068.951807228914,57772.92215568863,57742.78636363636,57873.58437278526,57863.658682634734,57592.92740909771,57660.5,57769.06993490947
patient206/s0427_re,60674.15714285714,60741.50714285715,60772.5,60403.975339545956,60402.96057210763,60522.20567375887,60474.94326241135,60161.03571428572,60257.58571428571,60329.36428571429
patient115/s0023_re,19268.242630385488,19325.950113378683,19470.81480677377,19124.884137931032,19041.935606060604,19285.728219696968,19237.073170731703,18975.907077724707,19094.36848072562,19136.915110725142
patient011/s0044lre,56464.82327253089,56051.479397587376,56541.840191719915,55546.87785118314,55319.1732200393,54552.34602862172,54025.89313470059,56185.86857923154,55696.62357198906,56245.07419816175
patient011/s0049lre,57614.88690476191,57657.494047619046,57694.10119047619,57408.76331360947,57381.57396449704,57517.302789802794,57477.63313609467,57228.8433536276,57327.482142857145,57398.11174530695
patient011/s0067lre,16144.764705882351,16188.79411764706,16223.823529411764,15819.228571428572,15791.742857142855,19093.714530892452,15924.942857142858,15570.117647058823,15670.117647058823,15732.382352941177
patient011/s0039lre,58293.92485549133,58350.815028901736,58389.64739884393,58107.23563218391,58070.360325021014,58204.53951080226,58168.15517241379,57884.150511875516,58014.23699421965,58087.473988439306
patient188/s0365lre,58025.32388597641,58080.58524464832,58126.3999836173,57765.40497579344,57602.34146341463,57898.813166361746,57889.84146341463,57541.83398864133,57635.89648864133,57717.4882863696
patient040/s0219lre,57959.137681159424,58031.04347826087,58065.31884057971,57727.17266187051,57689.423664122136,57821.05755395684,57805.625899280574,57523.76811594203,57623.688405797104,57700.00724637681
patient040/s0133lre,58091.93233082707,58159.4060150376,58190.6015037594,57846.932835820895,57856.867496260034,57986.70366392171,57967.67910447761,57629.503759398496,57727.436090225565,57800.25563909775
patient040/s0130lre,56464.82327253089,56051.479397587376,56541.840191719915,55546.87785118314,55319.1732200393,54552.34602862172,54025.89313470059,56185.86857923154,55696.62357198906,56245.07419816175
patient040/s0131lre,57998.62937062937,58062.39160839161,58097.04895104895,57767.51388888889,57671.14800443459,57884.98421643466,57877.79166666666,57580.69068025984,57688.34965034965,57753.11188811189
patient148/s0335lre,56464.82327253089,56051.479397587376,56541.840191719915,55546.87785118314,55319.1732200393,54552.34602862172,54025.89313470059,56185.86857923154,55696.62357198906,56245.07419816175
patient073/s0252lre,57971.94117647059,58030.57983193277,58089.04201680672,57658.6,57634.43838358031,57818.74166666667,57804.191666666666,57431.49579831933,57522.33613445378,57593.68907563025
patient073/s0249lre,57795.91129032258,57853.40322580645,57912.58064516129,57504.616,57488.39829706718,57660.696,57641.2,57311.65244482496,57374.82258064516,57456.83064516129
patient073/s0243lre,57965.64444444444,58017.31111111112,58078.55555555556,57699.93382352941,57689.423664122136,57853.01470588235,57821.52941176471,57447.371930167414,57567.55555555556,57615.061592078695
patient073/s0238lre,58027.230769230766,58084.730769230766,58137.307692307695,57758.12977099237,57671.14800443459,57889.2213740458,57872.954198473286,57552.43076923077,57641.89230769231,57716.1
patient263/s0499_re,59966.5761589404,60019.39735099338,60054.03973509934,59714.90131578947,59711.44074563723,60027.85667971618,59824.88868323638,59507.36481700118,59649.56953642384,59718.17880794702
patient051/s0179lre,57693.48863636364,57742.92613636364,57787.94318181818,57495.80790960452,57489.34905591866,57614.95379629629,57578.68361581921,57306.532539682536,57413.97727272727,57454.181818181816
patient051/s0187lre,58245.75471698113,58304.25471698113,58344.90566037736,57899.17687854958,57957.0945523078,58114.96936383478,58101.831775700935,57716.21698113208,57814.47169811321,57896.518867924526
patient051/s0181lre,58581.605769230766,58630.72115384616,58671.932692307695,58157.87619047619,58211.48822843823,58271.03677262931,58252.90476190476,57856.04807692308,57955.16346153846,58031.33653846154
patient231/s0455_re,60541.38356164384,60603.19863013698,60631.5,60281.6462585034,60247.76190476191,60420.24729022044,60338.88435374149,60022.58458646617,60115.59589041096,60175.760273972606
patient218/s0440_re,60208.66314136746,60345.59595959596,60339.3998696528,60454.85,60383.09818181818,60432.74492997199,60532.0403726708,60193.33985069321,60290.64646464647,60363.622852233675
patient209/s0431_re,60421.54237288136,60451.74576271186,60478.4406779661,60045.78151260504,60019.46218487395,60113.90673449612,60125.68907563025,59765.84745762712,59864.56779661017,59942.40677966102
patient234/s0460_re,59434.7570093458,59523.457943925234,59572.55140186916,59741.14814814815,59717.96296296296,59838.12962962963,59811.37037037037,59423.457943925234,59523.457943925234,59599.05607476636
patient196/s0002_re,19910.039743589747,19949.760256410256,19983.570192307692,19337.179487179485,19416.89057350033,19626.999564459933,19773.105263157893,19406.383012820515,19536.440384615387,19540.78237179487
patient063/s0214lre,57724.09106266335,57776.788136673684,57814.70327341111,57549.09302325582,57533.46633986928,57683.10508064517,57688.71317829457,57411.29357110984,57494.11686428253,57636.57065316548
patient211/s0433_re,60602.68658088236,60643.87142857143,60678.89523809524,60353.729857819904,60334.70142180095,60533.40880446117,60470.4062676454,60208.95238095238,60299.31428571429,60354.909523809525
patient191/s0340lre,57835.968,57879.304,57911.6,57510.63492063492,57547.844126405624,57664.79833112583,57711.42857142857,57311.65244482496,57363.784,57470.92902121078
patient257/s0493_re,60272.44027989822,60335.49030534351,60373.37267175573,60344.416683805684,60305.74508739551,60505.913788819875,60415.8,60050.58829516539,60137.39363867685,60207.37468193384
patient077/s0254lre,58156.58916313714,58238.8141025641,58293.63461538462,58009.74522292994,57984.21656050955,58109.720296221,58070.91082802548,57822.5959288938,57934.980769230766,58005.22435897436
patient077/s0258lre,58057.61780067758,58101.98630136986,58136.71917808219,57852.72108843538,57826.56462585034,57957.360544217685,57916.401360544216,57664.328080331616,57756.938356164384,57831.665344482564
patient077/s0285lre,57453.51243781095,57497.58706467662,57547.92537313433,57349.74257425743,57319.75742574257,57438.38118811881,57404.13366336634,57219.19402985075,57319.13930348259,57387.09950248756
patient077/s0251lre,57547.842342342345,57634.4009009009,57683.75675675676,57627.04484304933,57646.429611650485,57713.439461883405,57680.77130044843,57503.157657657655,57603.085585585584,57675.96846846847
patient055/s0194lre,58041.65111811926,58097.18107798165,58136.65355504587,57796.53763410503,57788.80287212017,57924.46678560416,57884.86934673367,57590.673423165135,57672.59217316513,57735.304357798166
patient112/s0169_re,19018.483870967742,19070.09677419355,19106.1935483871,19189.5625,19164.5625,19234.408862876255,19335.78125,18897.74193548387,18960.25806451613,19016.967741935485
patient200/s0405lre,58687.46534653466,58725.11881188119,58748.86138613861,58438.117647058825,58407.91176470588,58519.75873776187,58706.40196078432,58163.514851485146,58260.16831683168,58340.514851485146
patient275/s0513_re,59438.083333333336,59493.84615384616,59524.63461538462,59204.28025477707,59178.108280254775,59763.398148148146,59312.299363057326,59004.35897435898,59104.19230769231,59172.02564102564
patient005/s0031lre,57495.88123629386,57790.47039602988,57638.0975877193,57720.62285714286,57690.6152173913,57822.14829794405,57784.154285714285,57463.63075657895,57589.2495086478,57659.04947916667
patient005/s0021bre,57983.3513138416,58046.890112262525,58083.26087157661,57793.47193924236,57683.91042242896,57922.02283029904,57893.1043956044,57665.6316308907,57754.34179928448,57827.600897483346
patient005/s0025lre,58034.55080321286,58085.228313253014,58125.517570281125,57773.03959024101,57739.954545454544,57906.2583169023,57860.40404040404,57697.585591603056,57796.64166666666,57850.848155216285
patient005/s0021are,57872.34897801443,57929.655788388874,57969.66569334708,57715.7741008213,57689.582455395066,57871.1599451699,57832.36956521739,57588.06471143937,57675.6019552273,57736.46680693919
patient005/s0101lre,57933.27642276423,57973.74796747968,58005.0243902439,57570.22111480251,57561.89305391578,57698.395161290326,57669.75,57324.036,57300.59349593496,57500.772
patient201/s0420_re,60780.614876033054,60801.77142857143,60876.02083333333,60429.319773112264,60419.23001625796,60530.41329439578,60578.843971631206,60183.964138134594,60244.44285714286,60329.20867768595
patient201/s0423_re,59772.13924050633,59833.20253164557,59887.23417721519,59566.981132075474,59566.67819047619,59688.66666666666,59639.8427672956,59258.70634497468,59396.4746835443,59432.76116368968
patient069/s0284lre,58279.78070175439,58350.71929824561,58379.62280701754,57931.38260869565,57943.356464116034,58102.64146306717,58087.4,57684.34210526316,57784.21052631579,57856.30701754386
patient069/s0233lre,57886.984,57958.648,57987.456,57576.36507936508,57586.636502301844,57724.60502645503,57725.31746031746,57351.344,57451.32,57529.952
patient069/s0232lre,57781.29661016949,57828.74576271186,57853.26271186441,57402.86554621849,57358.48905109489,57494.78108367043,57507.8487394958,57132.9406779661,57227.27966101695,57308.53389830508
patient069/s0234lre,58192.333333333336,58264.74166666667,58294.15833333333,57860.82644628099,57843.04544112219,58059.59527425135,58016.65289256199,57637.16666666666,57737.15,57820.50833333333
patient136/s0205_re,19242.380276933472,19297.010469436,19201.99054373522,18968.824561403508,18852.9861379755,19160.84210526316,19131.877192982454,18975.907077724707,19026.376730834178,18969.125768321515
patient250/s0485_re,61333.49107142857,61394.0625,61436.38392857143,60993.46902654867,60965.72566371682,60960.34063461993,61112.5221238938,60695.16071428572,60795.05357142857,60869.767857142855
patient075/s0327lre,57821.48648648649,57873.91891891892,57920.18243243243,57626.094086021505,57584.720790935986,57769.18585632612,57723.53020134229,57422.81756756757,57522.44594594595,57590.83783783784
patient075/s0246lre,58003.69852941176,58060.69852941176,58105.757352941175,57733.28467153285,57671.14800443459,57855.13946400132,57876.20437956204,57553.19117647059,57650.625,57731.61029411765
patient075/s0242lre,58320.34969325153,58373.23312883436,58416.77914110429,58112.37804878049,58070.360325021014,58253.87379190577,58232.2743902439,57929.40202702703,58056.52147239264,58090.861177226194
patient075/s0248lre,57955.91472868217,58009.8992248062,58057.79069767442,57710.27834033614,57658.919757872136,57839.007352941175,57803.20769230769,57463.248062015504,57563.03875968992,57636.43410852713
patient163/s0034_re,19538.224242424243,19579.225757575754,19601.188383838384,19318.820463320462,19291.914092664094,19474.383241758245,19483.685185185182,19115.17166666666,19170.08914141414,19237.058585858587
patient169/s0328lre,57724.73148148148,57787.32407407407,57831.694444444445,57362.74311926605,57366.021518627356,57483.65725686528,57482.14678899082,57063.02777777778,57162.00925925926,57234.944444444445
patient169/s0329lre,58073.18348623853,58129.5871559633,58178.53211009174,57762.84545454545,57666.71138211382,57898.813166361746,57885.98181818182,57468.71559633027,57568.71559633027,57642.45871559633
patient061/s0210lre,58037.6855345912,58102.90566037736,58134.71698113208,57820.76875,57822.93768015681,57919.05380152061,57966.01185048487,57646.44025157233,57746.34591194968,57815.36477987422
patient123/s0224_re,19268.242630385488,19459.69743711438,19577.520645467488,19173.739545454544,19041.935606060604,19379.392482517484,19259.755555555555,19010.791516606645,19130.65899383009,19111.72876892693
patient289/s0550_re,60509.814520980595,60572.840953526844,60610.99943600541,60168.980044345895,60141.577864005914,60245.39386684907,60237.96753246753,59808.977026620545,59885.99996240036,60062.4644993354
patient183/s0175_re,19867.17948717949,19892.82051282051,19918.615384615383,19337.179487179485,19245.00754352031,19626.999564459933,19546.15,19669.641025641027,19721.23076923077,19761.589743589742
patient270/s0507_re,60584.52554744526,60651.912408759126,60679.78102189781,60303.760869565216,60236.53020611229,60420.24729022044,60371.108695652176,59999.08330560915,60077.83211678832,60180.180888866
patient048/s0277lre,56464.82327253089,56051.479397587376,56541.840191719915,55546.87785118314,55319.1732200393,54552.34602862172,54025.89313470059,56185.86857923154,55696.62357198906,56245.07419816175
patient048/s0172lre,57999.51934711788,58069.13815789474,58117.40789473684,57814.929970423924,57772.87471245481,57917.53274728886,57885.53544199803,57634.87988909977,57724.31578947369,57800.80921052631
patient048/s0180lre,56464.82327253089,56051.479397587376,56541.840191719915,55546.87785118314,55319.1732200393,54552.34602862172,54025.89313470059,56185.86857923154,55696.62357198906,56245.07419816175
patient048/s0171lre,57779.65945945946,57836.2,57887.5027027027,57606.20430107527,57556.97849462365,57787.88113516639,57716.43548387097,57446.470236297755,57555.09189189189,57618.15634908652
patient118/s0183_re,19650.78181818182,19681.618181818183,19701.654545454545,19367.85714285714,19338.071428571428,19506.535714285717,19468.785714285717,19169.92429443173,19234.872727272726,19311.67272727273
patient160/s0222_re,19910.039743589747,19949.760256410256,19983.570192307692,19337.179487179485,19416.89057350033,19626.999564459933,19616.825,19406.383012820515,19536.440384615387,19540.78237179487
patient053/s0191lre,58165.01948051948,58230.01298701299,58268.24675324676,57934.006451612906,57911.01459951069,58071.92317501896,58013.55483870968,57661.07769491525,57807.07792207792,57827.46277966102
patient104/s0306lre,57736.81196581197,57820.54700854701,57860.89743589744,57672.44526066351,57651.05084745763,57723.51247237569,57734.11752423564,57444.47863247863,57544.47863247863,57611.95726495727
patient084/s0288lre,58220.57446808511,58283.90780141844,58328.53191489362,58009.969499586434,57982.1534415451,58204.53951080226,58127.718858560795,57816.50354609929,57914.7304964539,57965.63255131965
patient084/s0281lre,56464.82327253089,56051.479397587376,56541.840191719915,55546.87785118314,55319.1732200393,54552.34602862172,54025.89313470059,56185.86857923154,55696.62357198906,56245.07419816175
patient084/s0289lre,56464.82327253089,56051.479397587376,56541.840191719915,55546.87785118314,55319.1732200393,54552.34602862172,54025.89313470059,56185.86857923154,55696.62357198906,56245.07419816175
patient084/s0313lre,58419.29565217391,58482.91304347826,58526.678260869565,58067.05172413793,58144.62949260042,58218.03448275862,58175.81896551724,57937.00869565218,58007.260869565216,58086.48695652174
patient033/s0121lre,58120.44347826087,58186.87826086956,58222.93043478261,57827.37068965517,57790.20225071424,57976.990822897125,57952.9224137931,57530.66086956522,57630.66086956522,57700.09565217391
patient033/s0105lre,57622.88025323276,57691.45637583893,57725.81879194631,57433.46,57401.94666666666,57769.71585497271,57664.06,57540.49838362069,57652.74496644295,57702.657718120805
patient033/s0157lre,58240.56756756757,58303.72072072072,58347.03603603604,57945.55357142857,57925.1875,58102.64146306717,58065.65220588236,57642.18018018018,57742.18018018018,57808.05405405405
patient033/s0113lre,58040.84426229508,58102.54918032787,58134.91803278688,57759.96747967479,57731.081300813006,57855.13946400132,57889.78861788618,57489.901639344265,57588.483606557376,57651.04918032787
patient249/s0484_re,60351.89380530974,60410.89380530974,60453.19469026549,60015.649122807015,59989.05263157895,60072.88417288557,60135.14035087719,59712.62831858407,59812.62831858407,59886.57522123894
patient266/s0502_re,60073.54991145219,60148.15826446281,60184.04660566706,59886.82068965517,59884.434822845054,60027.85667971618,59971.00689655173,59629.457556080284,59727.343270366,59802.45306965761
patient060/s0209lre,57979.17682926829,58028.17073170732,58074.07317073171,57776.1696969697,57745.61818181818,57871.1599451699,57829.969696969696,57577.66463414634,57675.33536585366,57756.20121951219
patient050/s0215lre,58171.36,58237.328,58269.824,57877.73015873016,57851.1746031746,58059.59527425135,58001.15873015873,57650.952,57745.112,57809.112
patient050/s0177lre,57547.84920634921,57612.73015873016,57645.49206349206,57257.51181102362,57391.76031558185,57632.18671809041,57830.82365696319,57526.50066021127,57514.61111111111,57694.57295334507
patient050/s0185lre,57997.269230769234,58064.230769230766,58097.20769230769,57734.04580152672,57705.84732824427,57837.036129919594,57840.606554621845,57496.25384615385,57579.053846153845,57637.03076923077
patient050/s0174lre,57338.69536423841,57408.112582781454,57437.807947019865,57123.76973684211,57095.98026315789,57308.28844086021,57232.80286084295,56927.76821192053,57023.258278145695,57088.62913907285
patient133/s0393lre,58533.80682162326,58580.30545881284,58619.7773697759,58182.785751488096,58038.78159722222,58298.28576501623,58271.51818181818,57937.49647940642,58036.345510296786,58110.37299364022
patient229/s0452_re,60130.07824675325,60188.72142857143,60224.41525974026,59861.71304347826,59827.75816169259,60027.85667971618,59974.52075040036,59655.64350649351,59753.51298701299,59823.46103896104
patient229/s0453_re,61501.28333333333,61560.00833333333,61592.34166666667,61203.05785123967,61176.85950413223,60960.34063461993,61203.55012401819,60951.01666666667,61050.98333333333,61125.25833333333
patient045/s0217lre,58169.16049382716,58227.345679012345,58272.59259259259,57972.89570552147,57941.22085889571,58123.73888335579,58202.06725589226,58050.52469135803,58114.67901234568,58171.92592592593
patient045/s0148lre,58140.98286756563,58208.099570060585,58242.051397303105,57824.12025316456,57782.14228723405,57922.02283029904,57967.10119047619,57559.064458341476,57658.566510325065,57730.799980457305
patient045/s0155lre,58042.178046050525,58163.101665283866,58143.75279820914,57846.24129912991,57912.23830306316,58069.70970847085,58025.85833333333,57782.660657179404,57804.09778357236,57929.07423249121
patient045/s0147lre,57904.226351351346,57957.69648932149,58002.993314118314,57649.79126213592,57619.85922330097,57769.597198918724,57729.23846326165,57455.14992618669,57575.989179739176,57619.06075403134
patient291/s0554_re,60910.25563442768,60973.27553978113,61006.72993197279,60495.85004359198,60427.3550295858,60721.000191570885,60718.3550295858,60438.15303164744,60536.06607512571,60619.65439219166
patient046/s0184lre,58619.852403846155,58659.97916666666,58721.80456730769,58347.579109572805,58342.30483921693,58505.19310344828,58470.441379310345,58238.911057692305,58273.3125,58383.02524038461
patient046/s0168lre,58789.801169590646,58836.19298245614,58877.32748538012,58590.76744186047,58575.52536231883,58710.56976744186,58678.51162790698,58388.37226277372,58537.79532163743,58584.01169590643
patient046/s0161lre,58391.35789473685,58438.6947368421,58475.347368421055,58217.33507853403,58211.48822843823,58330.955582878654,58268.45527622948,57962.85114503816,58115.86842105263,58134.17072645894
patient046/s0156lre,57711.29145728643,57759.20100502513,57795.9296482412,57544.39,57533.46633986928,57667.815,57634.33,57411.29357110984,57470.12060301508,57538.80661375662
patient207/s0428_re,56464.82327253089,56051.479397587376,56541.840191719915,55546.87785118314,55319.1732200393,54552.34602862172,54025.89313470059,56185.86857923154,55696.62357198906,56245.07419816175
patient154/s0170_re,19268.242630385488,19461.570541259985,19470.81480677377,19124.884137931032,18919.12121212121,19316.398897058825,19268.272727272728,18975.907077724707,19047.40039929015,19136.915110725142
patient047/s0167lre,57936.10926566554,57991.56258353644,58038.82087821369,57763.59888190076,57730.24109014675,57877.49302626711,57849.1376146789,57615.07229341929,57704.6626503656,57789.880567756925
patient047/s0163lre,57730.48061548834,57795.02852292429,57836.24979531882,57607.181759656654,57602.66687871078,57740.30491612689,57700.73611111111,57523.73171113466,57612.25534579079,57679.19432671933
patient047/s0160lre,56464.82327253089,56051.479397587376,56541.840191719915,55546.87785118314,55319.1732200393,54552.34602862172,54025.89313470059,56185.86857923154,55696.62357198906,56245.07419816175
patient210/s0432_re,60957.78747877103,61025.808167361436,61060.46062992126,60660.35368628641,60531.4978272929,60771.97459041262,60725.890510948906,60369.476841130156,60469.44140805928,60549.60737995986
patient288/s0549_re,59396.373959218356,59577.972727272725,59626.09090909091,59744.00900900901,59683.95895895896,59763.398148148146,59914.81081081081,59386.17442650807,59563.38181818182,59638.25454545455
patient215/s0437_re,60441.3791532358,60496.61681750558,60536.83644309447,60133.289505796216,60104.28007931665,60245.39386684907,60206.75675675676,59791.588457723774,59868.6113935036,60062.4644993354
patient213/s0435_re,60176.67251461988,60232.80701754386,60274.54970760234,60012.732558139534,59988.94224940463,60143.70930232558,60094.33139534884,59832.54385964912,59932.50292397661,60007.88304093568
patient010/s0042lre,57460.52,57512.88,57546.846666666665,57227.112582781454,57210.36380952381,57369.38410596026,57318.94039735099,57085.352659454584,57157.74,57243.86666666667
patient010/s0036lre,58245.93452380953,58295.52976190476,58327.29166666666,58036.6449704142,58005.27093085719,58173.863905325445,58119.76331360947,57884.150511875516,57989.33928571428,58083.60119047619
patient010/s0061lre,57947.27878787879,58005.52727272728,58040.29696969697,57766.36746987952,57745.419869352205,57866.42168674699,57826.132530120485,57579.97388333823,57669.55757575758,57757.97575757576
patient091/s0361lre,58081.03195810854,58148.03402094572,58181.75353855919,57830.3846201899,57835.878353701366,57987.474312058264,57950.36842105263,57555.83773405268,57655.79758806728,57723.38359251032
patient091/s0353lre,58213.328222703225,58277.5284992785,58176.02897102897,58010.56762355726,57982.38002367564,58152.766485036824,58133.63905325444,57757.3673039923,57844.87337662338,57915.642676767675
patient091/s0408lre,58195.528539659004,58248.21908135724,58296.46768363216,57976.14126818138,57947.802310105515,58114.96936383478,58063.744680851065,57942.728148496244,58094.64827935223,58158.56330730673
patient091/s0357lre,58161.99735849057,58215.64335849056,58254.60883018868,57786.70238095238,57846.06925733046,58055.69112133606,58100.44642857143,57731.59469746259,57847.3998490566,57869.04215647535
patient222/s0444_re,60460.16516357206,60536.785013262604,60575.07488947834,60412.88961038961,60386.06493506493,60520.30855116515,60502.68831168831,60188.414408867,60289.36193633953,60370.63974358975
patient256/s0492_re,56464.82327253089,56051.479397587376,56541.840191719915,55546.87785118314,55319.1732200393,54552.34602862172,54025.89313470059,56185.86857923154,55696.62357198906,56245.07419816175
patient012/s0050lre,57945.475,58004.625,58040.65,57609.10743801653,57616.16115527465,57782.305785123965,57740.26446280992,57384.91453731343,57378.55833333333,57557.315552238804
patient012/s0043lre,58100.51666666666,58133.21308103661,58201.28660130719,57901.86138613861,57863.181457431456,58073.61386138614,58028.94059405941,57857.32305882353,57817.0351935646,58002.60305882353
patient119/s0001_re,19493.130434782608,19550.02173913044,19582.91304347826,19286.1984448952,19291.23404255319,19405.689486139283,19387.488714733547,19160.760869565216,19251.978260869564,19324.260869565216
patient094/s0370lre,57765.52112676056,57831.140845070426,57865.25821596244,57655.378504672895,57633.54672897196,57787.88113516639,57831.28971962617,57598.4647887324,57675.86854460094,57716.7323943662
patient094/s0368lre,58083.955357142855,58183.57831632653,58187.87976190476,57852.17674418604,57834.91627906977,58055.69112133606,58018.86511627907,57793.02380952381,57782.670238095234,57950.76309523809
patient094/s0412lre,57619.715025906735,57695.751295336784,57726.891191709845,57481.54639175258,57489.34905591866,57614.95379629629,57610.22164948453,57363.16062176166,57456.68393782384,57515.47668393782
patient094/s0376lre,57914.185122987255,58043.13418456388,58011.691346438805,57799.37234042553,57762.24362947659,58055.69112133606,58015.62234042553,57770.279088050316,57800.78895537272,57926.95017534328
patient238/s0466_re,60716.72435897436,60778.51282051282,60812.929487179485,60474.4076433121,60451.55414012739,60556.01118744335,60542.261146496814,60284.14102564102,60384.08974358974,60449.82051282052
patient149/s0202are,19375.607034303084,18971.848588863464,19470.81480677377,18878.491228070176,18975.706781914894,19188.535635964916,19096.300298618888,18975.907077724707,18932.7170099161,19136.915110725142
patient149/s0202bre,19076.749871991808,19096.17543859649,19274.309540150993,19093.44827586207,19041.841856060604,19188.535635964916,19211.93103448276,18900.594371997257,19017.91228070176,19042.1540837337
patient090/s0356lre,58080.91891891892,58140.59459459459,58190.2072072072,57734.15178571428,57705.90178571428,57863.573312672175,57815.99107142857,57433.03603603604,57532.47747747748,57620.27027027027
patient090/s0360lre,58779.12035867643,58827.79,58881.56,58516.39603960396,58487.9504950495,58574.45184899846,58606.43564356436,58145.9835989836,58240.71,58309.43
patient090/s0348lre,57012.29032258064,57070.87903225807,57121.95967741936,56728.512,56701.464,57201.09027777778,56807.032,56459.23387096774,56558.02419354839,56648.6935483871
patient090/s0418lre,58178.77118644068,58241.483050847455,58289.03389830508,57939.58823529412,57910.57983193277,58059.59527425135,58031.403361344535,57671.20338983051,57771.1186440678,57845.81355932204
patient110/s0003_re,19345.13333333333,19294.037368421054,19335.73789473684,19269.587431693988,19206.978723404256,19418.52055702918,19438.25531914893,19157.761578947368,19251.60105263158,19317.93736842105
patient158/s0294lre,58287.659420289856,58343.85507246377,58389.391304347824,58011.6762589928,57943.356464116034,58131.6690647482,58093.82014388489,57696.63980263158,57794.11594202898,57870.67304002193
patient158/s0295lre,58148.78358208955,58209.55970149254,58243.74626865672,57862.585185185184,57881.64480444785,58136.066784123395,58227.14814814815,58057.10940450254,58068.25373134328,58184.0100217865
patient003/s0017lre,57901.38700828157,57947.86131386861,57984.48905109489,57664.02173913043,57645.27536231884,57885.26668093694,57936.862318840576,57553.97865769497,57737.04379562044,57750.67661498708
patient173/s0305lre,57626.86507936508,57690.57142857143,57726.77777777778,57510.38582677166,57489.34905591866,57614.95379629629,57591.65354330709,57276.00793650794,57376.00793650794,57443.34126984127
patient157/s0338lre,61451.77281420765,61465.78313253012,61543.99050546448,61120.58177114829,61097.20927962517,61638.285485805674,61108.151718840025,61277.48192771084,61370.03614457831,61440.72289156626
patient144/s0341lre,57855.60052732503,57882.54263565892,57992.840954118874,57703.073369565216,57710.8008017268,57916.48846167693,57934.17692307692,57607.16390121552,57720.558139534885,57798.03100775194
patient285/s0544_re,57038.96823821339,57098.45105459057,57140.51060794045,50498.25490196078,56681.94939130435,57201.09027777778,50683.470588235294,56500.26693548387,56599.62748138957,56682.47754342432
patient214/s0436_re,59798.55897435897,59848.49230769231,59879.717948717946,59652.09693877551,59687.990706605226,59841.357923497264,59722.505102040814,59494.205128205125,59594.15384615384,59660.73333333333
patient080/s0265lre,58759.81081081081,58824.11711711712,58851.32432432433,58420.24107142857,58449.45829837221,58506.16207627118,58491.392857142855,58122.02702702703,58216.0990990991,58309.24324324324
patient080/s0315lre,58010.11875,58064.775,58094.775,57830.2298136646,57801.27950310559,57920.068322981366,57886.50310559006,57712.63125,57776.46875,57828.15
patient080/s0260lre,57293.5014651548,57261.666186377246,57401.60201936553,57007.235401002516,56994.49425287356,57201.629166666666,57072.5459770115,56739.55792771786,56832.242009730544,56858.71333927889
patient080/s0261lre,57911.131868131866,57981.17032967033,58038.895604395606,58089.25136612022,58062.34426229508,58055.69112133606,58145.62841530055,57901.445054945056,57981.17032967033,58054.75274725275
patient262/s0498_re,61181.80109126984,61247.888392857145,61290.763392857145,61090.925191240436,60991.64235941746,61050.13369467028,61280.145161290326,60732.09226190476,60832.03869047619,60903.65773809524
patient017/s0063lre,58126.27450980392,58181.705882352944,58220.2614379085,57912.05844155844,57875.18831168831,58044.830322505935,58011.052575510716,57661.07769491525,57796.99346405229,57827.46277966102
patient017/s0055lre,57038.96823821339,57098.45105459057,57140.51060794045,56694.17391304348,56662.434782608696,57201.629166666666,56860.58088549618,56500.26693548387,56599.62748138957,56682.47754342432
patient017/s0053lre,57242.97191011236,57301.12359550562,57344.82584269663,57097.88826815642,57057.35195530726,57336.121774193554,57120.37162796153,56888.25054431643,57027.60112359551,57125.8261974434
patient017/s0075lre,58087.86666666667,58142.3,58182.083333333336,57773.157024793385,57736.52892561984,58000.53308080808,57980.42523448773,57862.675,57932.78333333333,58000.38333333333
patient181/s0204bre,19106.905673758865,18883.871980676333,19201.99054373522,18888.912280701756,18852.9861379755,19093.714530892452,18952.52380952381,18975.907077724707,18829.138647342996,18969.125768321515
patient181/s0204are,19246.250707413696,19370.717368421054,19411.14789473684,19258.475686274513,19270.466457680253,19429.399698340872,19384.809523809523,19135.92543859649,19225.02105263158,19293.747368421053
patient067/s0227lre,57732.66044776119,57809.32089552239,57885.64049049049,57660.93680297398,57636.483271375466,57787.88113516639,57713.82899628253,57563.41417910448,57637.65298507463,57719.94613363364
patient067/s0283lre,58003.0,58073.74789915967,58108.34453781512,57678.583333333336,57654.34166666667,57835.87818627451,57773.85,57421.0,57519.62184873949,57587.08306992521
patient067/s0230lre,58045.66860465116,58115.09302325582,58147.83720930233,57865.61849710983,57837.98265895954,57953.835444522636,57928.601156069366,57697.348837209305,57795.86046511628,57865.44186046512
patient113/s0018lre,50555.921757035,38344.14074074074,50661.017072752235,38273.125,50216.41739130435,31819.91591784339,38358.05882352941,49973.356297185994,38199.59259259259,38251.23703703703
patient113/s0018cre,19135.015873015876,19187.06349206349,19204.004668930393,19031.13641863279,19041.841856060604,19301.536437246963,19224.734375,18995.252546689306,19055.349206349205,19141.181239388796
patient170/s0274lre,57854.85,57904.96111111111,57935.28888888889,57659.25414364641,57616.16115527465,57779.20994475138,57736.26519337016,57515.98333333333,57615.98333333333,57693.28333333333
patient023/s0103lre,57661.35238095238,57728.57142857143,57762.47619047619,57248.160377358494,57199.877358490565,57487.552278510295,57395.6320754717,56937.23809523809,57025.73333333333,57087.561904761904
patient023/s0080lre,58262.21875,58327.796875,58367.148482362594,57899.18931997259,57929.51937984496,58102.64146306717,58079.52713178295,57708.9375,57808.6875,57885.0390625
patient023/s0085lre,57811.70476190476,57881.04761904762,57913.74285714285,57438.82075471698,57394.43396226415,57547.52633477634,57567.53773584906,57108.09523809524,57207.37142857143,57284.08571428571
patient007/s0038lre,57682.92307692308,57758.5,57787.0,57374.64122137405,57371.53246753247,57494.80152671756,57461.236641221374,57088.58087367179,57268.28461538462,57255.53032762692
patient007/s0078lre,58724.65,58794.87,58829.95,58289.62376237624,58283.42615815557,58506.16207627118,58396.67326732673,58003.87,58098.87,58259.6511988425
patient007/s0026lre,57902.48226950355,57976.46808510638,58009.624113475176,57633.85211267605,57615.925705400485,57767.581712962965,57720.08450704225,57433.59574468085,57527.92907801418,57622.283996683254
patient007/s0029lre,57792.55555555556,57860.56296296296,57891.7037037037,57499.52941176471,57500.44088669951,57618.94117647059,57587.580882352944,57311.65244482496,57402.65185185185,57477.87407407408
patient280/s0535_re,60690.83805309735,60728.39024390244,60765.03252032521,60367.48387096774,60341.45161290323,60530.41329439578,60656.66129032258,60098.830172777074,60150.46341463415,60253.94591234725
patient125/s0006_re,18999.54126984127,18847.52173913044,19033.874551971327,18809.0,18786.85106382979,19093.714530892452,19060.72340425532,18900.594371997257,18847.52173913044,18943.9394265233
patient194/s0310lre,56464.82327253089,56051.479397587376,56541.840191719915,55546.87785118314,55319.1732200393,54552.34602862172,54025.89313470059,56185.86857923154,55696.62357198906,56245.07419816175
patient107/s0199_re,19474.01754385965,19519.280701754386,19551.877192982454,19301.96551724138,19257.896551724138,19394.810344827587,19366.41379310345,19179.087719298244,19277.01754385965,19336.894736842107
patient038/s0125lre,58030.05755395684,58101.23741007194,58133.45323741008,57787.91428571429,57712.6483853386,57921.76990489999,57915.91428571429,57586.75539568345,57686.6690647482,57757.1654676259
patient038/s0162lre,58363.8407079646,58436.38053097345,58468.41592920354,58034.09649122807,57970.92486849391,58183.442090513636,58150.41228070176,57748.06194690266,57847.61946902655,57921.36283185841
patient038/s0128lre,58123.00775193799,58198.93023255814,58229.976744186046,57822.75384615385,57843.04544112219,57962.225871151706,58017.2437283523,57597.56589147287,57697.217054263565,57770.86046511628
patient251/s0506_re,60489.5,60543.71052631579,60595.80921052631,60283.47712418301,60255.1045751634,60420.24729022044,60388.61771072065,60080.85526315789,60180.83552631579,60247.40789473684
patient251/s0486_re,60475.11038961039,60526.32467532468,60583.506493506495,60273.89032258064,60248.47096774194,60420.24729022044,60388.61771072065,60077.545454545456,60177.32467532468,60244.668831168834
patient251/s0503_re,59936.81818181818,59991.66233766234,60044.168831168834,59735.37419354839,59706.52903225806,59841.357923497264,59845.58064516129,59534.41558441558,59634.35064935065,59700.66233766234
patient236/s0463_re,59960.416,60025.736,60060.224,59694.80952380953,59669.45238095238,59841.357923497264,59758.769841269845,59441.248,59541.224,59616.2
patient236/s0462_re,60024.3305785124,60088.23140495868,60122.44628099174,59740.94262295082,59716.3524590164,60027.85667971618,59804.19672131148,59480.31404958678,59580.21487603306,59654.26446280992
patient236/s0464_re,60479.41803278688,60543.59016393442,60577.77868852459,60175.41463414634,60149.52845528456,60420.24729022044,60239.04878048781,59909.38524590164,60009.38524590164,60085.05737704918
patient252/s0487_re,60415.20661157025,60488.66115702479,60532.81818181818,60644.901639344265,60618.90983606558,60556.01118744335,60759.24590163935,60380.77685950413,60479.59504132231,60548.39669421488
patient244/s0473_re,60342.5472972973,60391.14189189189,60429.4527027027,60104.03355704698,60074.93288590604,60113.90673449612,60203.61744966443,59874.60810810811,59974.60810810811,60039.87162162162
patient281/s0537_re,60386.71808909555,60431.3197840108,60465.8176841158,60030.715317706025,60004.25740822645,60102.68674071503,60139.78,59739.23788810559,59838.59805759712,59914.49100044998
patient026/s0088lre,57719.769230769234,57787.86013986014,57820.61538461538,57564.22916666666,57539.444444444445,57668.35783112583,57649.43055555556,57411.29357110984,57498.41258741259,57531.09674981104
patient026/s0095lre,58025.8695939781,58086.982390510944,58117.67582116788,57833.02,57788.80287212017,57924.46678560416,57915.91097308489,57646.822924270076,57728.70152828467,57787.41076642336
patient199/s0404lre,57264.44186046512,57340.8527131783,57386.24031007752,57374.851227539584,57434.2185140441,57473.547632747,57581.13846153846,57241.13953488372,57340.8527131783,57410.27131782946
patient032/s0115lre,58278.41216216216,58353.25,58382.94594594595,58032.718120805366,58070.360325021014,58204.53951080226,58163.590604026846,57874.80405405405,57973.81756756757,58051.04054054054
patient032/s0106lre,57838.66470588235,57917.19411764706,57946.01176470588,57632.43274853801,57584.31578947369,57775.20564351663,57745.49707602339,57479.85882352941,57579.51176470588,57637.041176470586
patient032/s0165lre,58083.05333333333,58177.018867924526,58206.65408805032,57867.9875,57822.06875,58085.94176215374,58120.91875,57905.77797619048,57960.08176100629,57984.66848785872
patient032/s0102lre,57989.238341968914,58062.19689119171,58092.25388601036,57818.9793814433,57765.4793814433,57915.18041237113,57891.63402061856,57716.31088082901,57805.60621761658,57862.68393782384
patient036/s0116lre,57756.58239530989,57785.91682904318,57828.18591255597,57540.84507042253,57496.73758278146,57668.35783112583,57636.20216216217,57411.29357110984,57448.2031586504,57521.537367724864
patient036/s0126lre,57615.65547237997,57783.459147216934,57819.87645664296,57618.95,57593.504455445545,57747.87262350369,57889.16673267327,57450.38652113652,57652.314851914925,57653.76218905473
patient036/s0111lre,58483.62676056338,58549.49295774648,58580.18309859155,58257.92982418799,58207.462114726026,58356.70888036242,58354.86750244774,58069.43661971831,58168.84507042253,58239.68309859155
patient006/s0022lre,58734.70857142857,58790.217142857146,58825.43428571429,58527.35227272727,58548.48380887681,58655.56818181818,58616.75568181818,58346.5039547503,58468.45142857143,58553.94857142857
patient006/s0027lre,57929.33766233766,57983.73376623377,58019.7077922078,57685.412903225806,57642.73154362416,57825.0,57780.04516129032,57486.94639942881,57578.23376623377,57652.75974025974
patient006/s0064lre,58695.03378378379,58741.01351351351,58772.53378378379,58417.72483221477,58381.0948520897,58519.75873776187,58564.47651006712,58218.414903846155,58356.5472972973,58411.18918918919
patient226/s0449_re,61058.53389830508,61109.68644067797,61140.661016949154,60735.97478991596,60711.87394957983,60775.092316705726,60963.015571745054,60644.84745762712,60714.26271186441,60772.254237288136
patient292/s0555_re,57038.96823821339,57098.45105459057,57140.51060794045,56761.69493129771,56841.51473809524,57194.94422043011,56763.721052631576,56500.26693548387,56599.62748138957,56682.47754342432
patient292/s0556_re,60502.7776080827,60599.72780090723,60661.148076803576,60243.37735502813,60339.893583138175,60505.913788819875,60449.0134529148,60188.152801724136,60456.460169017584,60356.09880952381
patient156/s0299lre,57246.52631578947,57323.38345864662,57363.42105263158,57307.91791044776,57270.93031699483,57377.422859670616,57339.99921736764,57069.92481203008,57169.72180451128,57239.16541353383
patient016/s0076lre,58218.17592592593,58282.77777777778,58355.42690426276,58011.65137614679,57984.66972477064,58114.96936383478,58128.30275229358,57686.0462962963,57782.0,57860.194444444445
patient016/s0052lre,57514.06091954023,57540.125,57600.97632183909,57312.84955752213,57287.62831858407,57476.40800865801,57432.21238938053,57096.43252873563,57080.169642857145,57276.74632183908
patient016/s0060lre,57607.194885361554,57659.92028985507,57704.8768115942,57465.85242258829,57416.391920520124,57517.302789802794,57574.25179856115,57269.40211640212,57351.289855072464,57414.42028985507
patient190/s0040_re,19562.39968102073,19600.449441786284,19626.7658692185,19616.735849056604,19297.983990147783,19450.673029556652,19497.26465201465,19076.151702786377,19255.945135566188,19324.283732057418
patient190/s0041_re,19562.39968102073,19600.449441786284,19626.7658692185,20439.491803278688,19297.983990147783,19450.673029556652,19497.26465201465,19076.151702786377,19255.945135566188,19324.283732057418
patient122/s0312lre,58075.18253968254,58138.43650793651,58175.15079365079,57787.55905511811,57758.37795275591,57898.813166361746,57897.97637795276,57533.78571428572,57633.78571428572,57705.98412698413
patient049/s0186lre,58280.723577235774,58341.31707317073,58372.60162601626,57980.35483870968,57957.1935483871,58088.622875932386,58085.346774193546,57712.57724056604,57855.14634146341,57890.77896521226
patient049/s0178lre,58486.089655172414,58542.979310344825,58572.92413793103,58244.22602739726,58219.20547945205,58356.70888036242,58332.6301369863,58022.206896551725,58118.096551724135,58201.65517241379
patient049/s0173lre,57418.7027027027,57478.87837837838,57522.4527027027,57370.523884531314,57414.02013422819,57455.4470875659,57452.943455059794,57248.9527027027,57345.12162162162,57411.02702702703
patient049/s0314lre,58512.688405797104,58573.384057971016,58608.63043478261,58250.30935251799,58233.659149982435,58356.70888036242,58373.0071942446,58047.49275362319,58146.536231884056,58223.30434782609
patient089/s0359lre,58681.69291338583,58728.015748031496,58758.93700787402,58400.34375,58395.953125,58494.875,58470.2265625,58125.0548312328,58167.433070866144,58259.6511988425
patient089/s0355lre,57804.216,57845.504,57882.936,57498.86507936508,57438.82956391353,57622.53968253968,57620.18253968254,57120.51795803067,57166.96,57296.309806295394
patient089/s0372lre,57969.30935251799,58012.94964028777,58050.56834532374,57746.77006587501,57745.419869352205,57843.73962035192,57819.078571428574,57550.71637504418,57634.94964028777,57728.991501976285
patient089/s0344lre,58078.24,58127.032,58164.312,57779.92970287288,57779.29883780992,58069.70970847085,58106.92857142857,57754.55762578617,57880.328,57907.874056603774
patient235/s0461_re,60536.62406015037,60591.1954887218,60629.984962406015,60256.52985074627,60225.298507462685,60420.24729022044,60322.611940298506,60009.45864661654,60109.45864661654,60184.6015037594
patient143/s0333lre,57696.38302606485,57764.48553719008,57796.28512396694,57374.41044776119,57358.36019071139,57487.552278510295,57443.3257674192,57101.445829028926,57225.98941513033,57272.820506198346
patient072/s0244lre,58042.38532110092,58090.1743119266,58139.64220183486,57681.281818181815,57655.13636363636,57835.87818627451,57761.60909090909,57405.28318584071,57494.26605504588,57580.47706422018
patient072/s0237lre,57986.99386503067,58032.88957055215,58080.98773006135,57779.17073170732,57731.3743315508,57877.49302626711,57853.689024390245,57608.19018404908,57707.134969325154,57781.93865030675
patient072/s0318lre,58681.338983050846,58725.1186440678,58774.09322033898,58344.09243697479,58318.73949579832,58506.16207627118,58469.43586189517,58080.16949152543,58179.11016949153,58256.838983050846
patient072/s0240lre,58139.700730727076,58246.4375,58296.232142857145,57852.44247787611,57822.02654867257,57991.00941003191,57956.76991150442,57525.611947387646,57633.71428571428,57695.41757398612
patient267/s0504_re,57748.54858348402,57811.91305003014,57842.064466546115,57447.72440944882,57398.190314465406,57539.570886460235,57546.051886792455,57175.3878968254,57289.63508137432,57493.371716203255
patient135/s0334lre,57713.29583333334,57769.27083333333,57803.92202380952,57400.034254207334,57383.85106382979,57476.40800865801,57489.69319142396,57113.55543154762,57267.426785714284,57493.371716203255
patient189/s0309lre,57914.185122987255,58034.28684143082,58011.691346438805,57790.621212121216,57762.24362947659,58055.69112133606,58023.07575757576,57878.39646226415,57805.232178815946,57926.95017534328
patient180/s0374lre,57181.31007751938,57259.186046511626,57299.333333333336,57245.19230769231,57110.07382711599,57349.3,57329.89230769231,56993.88372093023,57093.88372093023,57163.023255813954
patient180/s0490_re,60723.12686567164,60801.119402985074,60841.880597014926,60853.00740740741,60682.97797015766,60956.92592592593,60938.42222222222,60603.08208955224,60702.932835820895,60769.34328358209
patient180/s0545_re,60585.96875,60648.3625,60685.0125,60349.416149068325,60323.26792944352,60493.416149068325,60438.124223602485,60160.5125,60256.8625,60319.37142857143
patient180/s0475_re,60906.83916083916,60981.32167832168,61022.3986013986,60882.03070204459,60864.716502348965,60861.76765046296,61074.95138888889,60763.64335664336,60862.93706293706,60930.342657342655
patient180/s0476_re,60619.40441176471,60668.10294117647,60698.65441176471,60458.038160191616,60459.54014598541,60573.401459854016,60559.93430656935,60224.05147058824,60323.22794117647,60390.47794117647
patient180/s0561_re,58662.51304347826,58743.7652173913,58790.24347826087,58632.29612509835,58726.789855072464,59063.54310344828,59043.52586206896,58641.99130434782,58741.46956521739,58810.95652173913
patient180/s0477_re,60149.68421052631,60223.71428571428,60254.93233082707,59962.07462686567,59846.27495175076,60061.66417910448,60040.23880597015,59696.93984962406,59796.90977443609,59867.827067669175
patient081/s0346lre,57875.82894736842,57937.84868421053,57972.07236842105,57679.69281045752,57648.77777777778,57787.88113516639,57798.549019607846,57510.64473684211,57606.89473684211,57673.38815789474
patient081/s0270lre,58855.49635036496,58918.43065693431,58965.56934306569,58608.90579710145,58583.036231884056,58671.0121564482,58735.57246376811,58395.77372262774,58494.868613138686,58557.0
patient081/s0266lre,58650.96062992126,58715.40157480315,58769.6377952756,58507.69410043549,58528.953125,58646.82435936546,58736.9921875,58334.4251968504,58431.96062992126,58499.89763779528
patient081/s0264lre,58208.48051948052,58272.27922077922,58313.16233766234,58009.48387096774,57980.09032258065,58136.066784123395,58144.28387096775,57828.68831168831,57907.74675324676,57971.09090909091
patient294/s0559_re,59729.5437939291,59550.71533559898,59599.32115548004,59760.77181208054,59717.15771098968,59916.089404978746,59863.0905905906,59451.885996756006,59543.41988105353,59618.65531011045
patient068/s0228lre,58460.69047619047,58519.72023809524,58553.20238095238,58265.55029585799,58233.659149982435,58389.37869822485,58336.72781065089,58083.857142857145,58182.19047619047,58264.01190476191
patient239/s0467_re,60722.41708191541,60573.683694083695,60802.82720588236,60469.54037267081,60468.43810577959,60556.01118744335,60592.509316770185,60215.47201628586,60267.544660894666,60384.19764827419
patient098/s0389lre,57867.49127473931,57922.08544371143,57963.43767290913,57645.98387096774,57615.925705400485,57769.18585632612,57721.23387096774,57428.20665612421,57540.396201319425,57587.75847115772
patient098/s0398lre,57648.90499084249,57661.349315068495,57740.55059523809,57394.12244897959,57372.78698224852,57476.40800865801,57451.87074829932,57194.890410958906,57293.07534246575,57364.57534246575
patient098/s0409lre,57922.78534031413,57983.85340314136,58024.9109947644,57793.68229166666,57772.84865515857,57889.1753344188,58019.349049000644,57638.85593731163,57773.38743455497,57841.56544502618
patient098/s0386lre,57550.77965640547,57499.36297964891,57645.90018656716,57374.78191489362,57356.52149400987,57477.44265439203,57425.414893617024,57156.95301797945,57208.45341385739,57327.31892123287
patient001/s0016lre,57419.023073721444,57451.19736842105,57519.22420789761,57202.013071895424,57164.61437908497,57298.37908496732,57253.63398692811,56927.29103584621,57029.93421052631,57104.406222360965
patient001/s0014lre,57594.50677083334,57603.14634146341,57683.89083333334,57390.89090909091,57353.81818181818,57480.30303030303,57435.30909090909,57156.95301797945,57217.51829268293,57327.31892123287
patient001/s0010_re,19456.764705882357,19533.666666666668,19572.941176470587,19283.44230769231,19247.82692307692,19403.55769230769,19333.94230769231,18973.21568627451,19051.50980392157,19184.467120181405
patient278/s0530_re,60418.71751412429,60468.48587570622,60518.82485875706,60231.26404494382,60205.53370786517,60420.24729022044,60478.87640449438,60132.458773784354,60252.36723163842,60329.48587570622
patient278/s0529_re,60265.98876404495,60315.2808988764,60365.30337078652,60081.28491620112,60054.50279329609,60245.39386684907,60327.06703910614,60006.6797752809,60098.79775280899,60036.93150046599
patient278/s0528_re,60464.15697674418,60512.86046511628,60563.34302325582,60266.919075144506,60241.31791907515,60420.24729022044,60519.32369942196,60187.37209302326,60280.92441860465,60360.13953488372
patient082/s0320lre,58527.67597512719,58592.149491237986,58622.810429621255,58269.758599124456,58259.72727272727,58423.05369274068,58363.59005628518,58022.81515998758,58109.57696438666,58194.41775014132
patient082/s0279lre,56464.82327253089,56051.479397587376,56541.840191719915,55546.87785118314,55319.1732200393,54552.34602862172,54025.89313470059,56185.86857923154,55696.62357198906,56245.07419816175
patient082/s0267lre,57148.28888888889,57231.16296296296,57276.82222222223,57266.23529411765,57257.886900557256,57411.94113924051,57389.40441176471,57080.096296296295,57179.97777777778,57251.75555555556
patient082/s0271lre,57038.96823821339,57098.45105459057,57140.51060794045,56800.87662337662,56681.94939130435,57201.629166666666,56860.58088549618,56500.26693548387,56599.62748138957,56682.47754342432
patient162/s0193_re,19910.039743589747,19949.760256410256,19983.570192307692,19337.179487179485,19416.89057350033,19626.999564459933,20358.51724137931,19406.383012820515,19536.440384615387,19540.78237179487
patient272/s0510_re,60731.46212121212,60795.38636363636,60835.49242424242,60738.61181181181,60826.599840059054,60861.76765046296,60951.74436090225,60684.09090909091,60759.219696969696,60825.59090909091
patient028/s0090lre,57698.232142857145,57764.392857142855,57801.705357142855,57387.38053097345,57357.49557522124,57483.65725686528,57481.345132743365,57093.28571428572,57190.267857142855,57255.482142857145
patient028/s0108lre,57410.59574468085,57474.765957446805,57514.32978723404,57011.76842105264,56987.68421052631,57201.09027777778,57149.98947368421,56630.382978723406,56728.44680851064,56788.70212765958
patient028/s0093lre,59579.01941747573,59644.3786407767,59679.8932038835,59220.78846153846,59201.69230769231,59763.398148148146,59316.57692307692,58907.90291262136,59004.41747572816,59073.66990291263
patient147/s0211_re,19425.666666666668,19476.83333333333,19500.722222222223,19269.783783783783,19245.75675675676,19410.063159879333,19477.513513513517,19007.58333333333,19105.305555555555,19162.444444444445
patient013/s0072lre,57993.43195266272,58059.24260355029,58087.44970414201,57777.65882352941,57722.794117647056,57880.74705882353,57853.07647058823,57623.319526627216,57723.12426035503,57797.8224852071
patient013/s0045lre,57906.12883435583,57958.22085889571,57998.22699386503,57668.04878048781,57612.04268292683,57769.597198918724,57742.95731707317,57503.937114746324,57610.00613496933,57676.17177914111
patient013/s0051lre,57685.39240506329,57742.77848101266,57770.38607594937,57444.93081761006,57402.09398936649,57517.302789802794,57524.56603773585,57289.86884920635,57371.898734177215,57464.6245341615
patient025/s0091lre,57987.10112612613,58043.29729729729,58085.23693693693,57717.75268843725,57692.7713348461,57819.89961031175,57812.7094017094,57486.80412912914,57586.23873873874,57661.79624624625
patient025/s0150lre,57038.96823821339,57098.45105459057,57140.51060794045,56761.69493129771,56841.51473809524,57194.94422043011,56522.06617647059,56500.26693548387,56599.62748138957,56682.47754342432
patient025/s0087lre,57711.48181216931,57775.858465608464,57816.699900793654,57375.06182511975,57369.534769859136,57494.78108367043,57481.51408450704,57078.156746031746,57176.138558201055,57245.2132936508
patient255/s0491_re,60684.71538461538,60757.776923076926,60790.09230769231,60395.06106870229,60373.59445100354,60530.41329439578,60501.8854961832,60197.03430451128,60262.93076923077,60358.44615384616
patient246/s0478_re,60994.81739130435,61064.15652173913,61098.8,60660.35368628641,60538.8280002298,60772.84482758621,60737.25,60384.84347826087,60480.6695652174,60558.04347826087
patient198/s0402lre,57065.64615384615,57126.02307692308,57159.06153846154,56794.87786259542,56681.94939130435,57201.09027777778,56914.12977099237,56541.3,56641.230769230766,56716.26153846154
patient198/s0415lre,57008.905982905984,57095.08547008547,57139.094017094016,57266.82203389831,57366.021518627356,57410.906493506496,57381.872881355936,56989.52991452992,57089.52991452992,57158.5641025641
patient167/s0200_re,19420.175,19489.225,19539.525,19337.179487179485,19274.565297138666,19405.689486139283,19505.80487804878,19143.125,19243.125,19319.975
patient271/s0509_re,60645.87610619469,60705.19469026549,60739.02654867257,60335.62237026648,60283.37506018295,60507.8109114136,60513.88499298738,59988.70796460177,60088.32743362832,60152.98230088496
patient018/s0059lre,57384.852348993285,57451.9932885906,57493.657718120805,57196.43333333333,57161.653333333335,57293.63333333333,57246.746666666666,56973.84563758389,57060.48322147651,57156.959731543626
patient018/s0054lre,57927.16265060241,57990.22891566265,58034.2108433735,57779.73652694611,57745.22155688623,57875.89820359281,57827.01197604791,57582.28313253012,57674.030120481926,57763.01204819277
patient018/s0082lre,57693.176949515444,57770.06060606061,57788.80427372098,57518.827067669175,57484.308270676695,57592.9762244482,57570.56390977444,57615.77810175794,57765.128787878784,57746.388269100746
patient042/s0140lre,57777.45205479452,57833.97260273973,57867.10958904109,57515.52380952381,57493.57142857143,57643.92091936112,57618.00680272109,57310.54794520548,57410.53424657534,57485.02739726027
patient042/s0137lre,57487.15517241379,57544.62643678161,57578.0459770115,57284.41714285714,57259.07428571428,57403.88264703953,57391.30857142857,57113.7183908046,57213.3908045977,57286.0459770115
patient042/s0347lre,57438.16522875817,57494.13607843137,57534.351437908495,57215.97014925373,57163.70503900485,57333.88159546378,57313.869549324845,57015.416282844235,57156.798104575166,57235.76666666666
patient042/s0135lre,57893.28333333333,57946.0,57980.26666666667,57701.35359116022,57679.6408839779,57810.7761627907,57813.82320441989,57540.57222222223,57640.0,57703.32222222223
patient126/s0154_re,18864.066666666666,18920.222222222223,18961.555555555555,18888.912280701756,18975.706781914894,19026.58695652174,18987.95652173913,18900.594371997257,18810.755555555555,18870.911111111112
patient168/s0033_re,19242.380276933472,19251.5664427025,19470.81480677377,19097.55747126437,19041.935606060604,19188.535635964916,19182.6,18975.907077724707,19007.658268010455,19136.915110725142
patient168/s0032_re,19264.6,19331.68,19369.66,19327.779739386297,19245.00754352031,19429.399698340872,19465.43137254902,19222.76,19310.86,19370.48
patient039/s0134lre,58027.66160619937,58094.638544566915,58164.35211976048,57870.63189421338,57839.15321729958,58030.81173537114,57988.62068965517,57640.22787969925,57829.445878942744,57804.683819548874
patient039/s0164lre,57678.305032467535,57748.56493506493,57788.09090909091,57469.393548387096,57469.312684750475,57614.95379629629,57583.50967741935,57350.1088823094,57407.31818181818,57485.78376623377
patient039/s0129lre,58031.30169469259,58071.28823529412,58110.82352941176,57840.70175438596,57818.35939022014,57935.18933390448,57936.976608187135,57693.55882159748,57788.035294117646,57833.00588235294
patient258/s0494_re,60464.89090909091,60549.37272727273,60599.86363636364,60760.6036036036,60730.31531531532,60861.76765046296,60835.54054054054,60424.05454545454,60524.05454545454,60601.70909090909
patient100/s0399lre,57662.698684210525,57734.80263157895,57776.41842105264,57706.99052132702,57673.0,57835.659526854215,57796.13334134038,57482.08874269006,57581.80263157895,57651.18304093568
patient100/s0401lre,57700.24183006536,57750.46405228759,57792.67320261438,57513.91558441558,57479.44805194805,57746.90362403101,57762.23376623377,57654.21568627451,57722.35294117647,57779.86274509804
patient100/s0407lre,57554.51083846831,57691.09950248756,57730.32338308458,57621.99504950495,57592.10891089109,57769.71585497271,57841.153465346535,57526.50066021127,57691.09950248756,57743.12437810945
patient230/s0454_re,60158.81896551724,60216.3275862069,60250.5,59822.333333333336,59789.59829059829,60027.85667971618,59947.982905982906,59655.64350649351,59643.81896551724,59723.74137931035
patient056/s0196lre,58486.00787401575,58529.88976377953,58567.62204724409,58207.6953125,58195.71875,58324.0390625,58289.703125,58018.944881889765,58117.52755905512,58189.4094488189
patient031/s0104lre,58156.25149700599,58217.982035928144,58266.389221556885,57997.30357142857,57963.95238095238,58136.066784123395,58059.69480795214,57822.5959288938,57950.05988023952,57999.27376485303
patient031/s0114lre,58294.74269005848,58347.63157894737,58403.39766081872,58143.936046511626,58114.395348837206,58235.21511627907,58199.686046511626,57884.150511875516,57975.55555555556,58069.25726448992
patient031/s0127lre,57776.06616345169,57812.63265306123,57860.44217687075,57538.56756756757,57510.25,57643.92091936112,57638.07432432433,57320.6549249837,57426.28571428572,57493.496691827415
patient031/s0100lre,57774.84916201117,57842.66480446927,57887.564245810056,57637.9,57605.944444444445,57775.20564351663,57706.64444444444,57470.122905027936,57562.0279329609,57645.4748603352
patient286/s0546_re,60482.305194805194,60536.92156862745,60589.657852016404,60278.68372338182,60251.78777145267,60420.24729022044,60461.98051948052,60079.200358851675,60159.8954248366,60246.03836295284
patient241/s0469_re,50555.921757035,50614.45015442691,50661.017072752235,49114.76842105264,50216.41739130435,50500.99671052632,49643.33053221289,49973.356297185994,50067.18230954015,50148.256348661635
patient241/s0470_re,59357.990909090906,59447.81818181818,59497.94545454546,59676.333333333336,59649.95495495496,59763.398148148146,59790.719667943806,59348.89090909091,59447.81818181818,59521.836363636365
patient232/s0456_re,60304.55090376161,60368.9752320469,60409.638641915,60004.55737704918,60064.717839601064,60332.95748804223,60327.4043715847,59875.4572789448,59971.242354665366,60027.29279787588
patient203/s0424_re,60384.42592592593,60477.51851851852,60522.15740740741,60702.752621473934,60674.61257569045,60545.90644421273,60791.28440366973,60377.51851851852,60477.51851851852,60546.13888888889
patient220/s0442_re,56464.82327253089,56051.479397587376,56541.840191719915,55546.87785118314,55319.1732200393,54552.34602862172,54025.89313470059,56185.86857923154,55696.62357198906,56245.07419816175
patient108/s0013_re,19401.469387755104,19464.83673469388,19499.20408163265,19156.32,19041.935606060604,19309.89342948718,19243.7,19048.367346938776,19133.38775510204,19206.48979591837
patient074/s0406lre,58025.62621202327,58085.07336780866,58119.59964447317,57742.125,57654.09439582945,57884.98421643466,57897.05882352941,57511.937847446665,57603.337847446666,57668.65824175824
patient074/s0245lre,57866.091123949576,57924.27672955975,57971.22292250234,57727.56875,57701.7,57798.10067114094,57840.606554621845,57475.91541988417,57574.8427672956,57641.333333333336
patient074/s0239lre,58287.89388840113,58346.64530289728,58393.19834650278,58035.86058201059,57998.11989664083,58253.87379190577,58223.17619047619,57928.51459854015,57887.788947419765,58124.65796679033
patient074/s0241lre,57689.39644970415,57735.43786982248,57769.71597633136,57551.35882352941,57527.48823529412,57614.95379629629,57640.54705882353,57371.80105820106,57471.49112426036,57538.80661375662
patient041/s0138lre,57962.72784810127,58017.05063291139,58067.10759493671,57804.34591194968,57769.37106918239,57874.23899371069,57852.11949685535,57662.759493670885,57742.79113924051,57789.880567756925
patient041/s0276lre,58007.20731707317,58049.83536585366,58072.51829268293,57861.35151515152,57826.27272727273,57935.260606060605,57912.04242424243,57710.60630746653,57911.87195121951,57866.139656773186
patient041/s0132lre,57314.086486486485,57354.96756756757,57384.12432432432,57200.18817204301,57162.79569892473,57280.26344086022,57246.47311827957,57021.88522480699,57214.23243243243,57272.03783783784
patient041/s0136lre,58012.52469135803,58065.93827160494,58117.50617283951,57884.31288343558,57848.54601226994,57958.9018404908,57927.45398773006,57985.40740740741,58046.58641975309,58111.81481481482
patient057/s0198lre,57663.12142857143,57735.25714285715,57790.2,57510.37618595825,57533.46633986928,57614.95379629629,57612.02836812144,57337.05714285714,57435.72857142857,57517.38571428572
patient237/s0465_re,60825.42975206611,60865.60330578512,60907.0,60500.31147540984,60477.33606557377,60530.41329439578,60576.42622950819,60206.89256198347,60306.89256198347,60377.9173553719
patient277/s0527_re,60181.71134020619,60270.886597938144,60318.74226804124,60534.255102040814,60506.37755102041,60432.74492997199,60643.02040816326,60170.886597938144,60270.886597938144,60344.41237113402
patient178/s0011_re,19429.11704681873,19398.36170212766,19400.509935553167,19170.52083333333,19041.935606060604,19429.399698340872,19331.5,19070.565252416756,19128.531914893618,19235.94226638024
