Nome,Deborah Dore
Data di nascita,"14 gen 1999"
Data di registrazione,2022-02-06 11:05:11 +0100
Classificazione,Ritmo sinusale
Sintomi,
Versione software,1.90
Dispositivo,"Watch6,6"
Frequenza campione,512 hertz


Elettrodo,Elettrodo I
Unità,µV

-174,69
-160,537
-146,739
-133,747
-121,969
-111,665
-103,011
-95,978
-90,09
-84,646
-78,958
-72,031
-62,893
-50,647
-34,341
-13,521
11,457
39,841
70,765
102,9
134,83
164,644
189,753
208,24
218,821
221,204
216,36
204,336
184,699
156,915
119,577
75,375
30,414
-9,114
-35,655
-47,875
-50,79
-48,947
-48,181
-50,426
-52,659
-53,796
-53,244
-51,191
-49,797
-49,783
-50,634
-52,071
-53,444
-54,09
-53,878
-52,723
-50,559
-47,658
-44,374
-40,941
-37,628
-34,714
-32,343
-30,617
-29,604
-29,242
-29,445
-30,139
-31,221
-32,592
-34,166
-35,853
-37,554
-39,171
-40,624
-41,856
-42,828
-43,519
-43,913
-43,999
-43,782
-43,286
-42,536
-41,558
-40,379
-39,015
-37,495
-35,854
-34,13
-32,366
-30,594
-28,833
-27,097
-25,395
-23,732
-22,111
-20,527
-18,966
-17,418
-15,879
-14,341
-12,805
-11,264
-9,71
-8,136
-6,536
-4,903
-3,234
-1,527
0,222
2,015
3,852
5,73
7,648
9,602
11,589
13,608
15,656
17,729
19,828
21,945
24,072
26,212
28,362
30,519
32,683
34,839
36,969
39,072
41,148
43,167
45,103
46,933
48,628
50,194
51,654
52,979
54,128
55,177
56,219
57,182
58,066
58,881
59,401
60,209
61,873
63,569
65,043
64,784
60,987
55,647
50,093
46,306
47,009
49,796
52,63
54,116
51,949
47,785
43,307
38,894
35,575
32,767
29,718
26,583
23,277
19,861
16,503
13,115
9,628
6,083
2,5
-1,118
-4,753
-8,386
-12
-15,567
-19,055
-22,459
-25,774
-28,984
-32,08
-35,05
-37,883
-40,573
-43,112
-45,491
-47,704
-49,743
-51,604
-53,282
-54,775
-56,08
-57,196
-58,122
-58,86
-59,41
-59,776
-59,961
-59,969
-59,806
-59,478
-58,992
-58,356
-57,578
-56,668
-55,636
-54,491
-53,244
-51,906
-50,486
-48,996
-47,445
-45,845
-44,204
-42,534
-40,843
-39,141
-37,438
-35,741
-34,06
-32,402
-30,775
-29,185
-27,639
-26,141
-24,698
-23,314
-21,992
-20,736
-19,549
-18,432
-17,386
-16,413
-15,511
-14,68
-13,917
-13,222
-12,59
-12,019
-11,506
-11,046
-10,637
-10,274
-9,953
-9,671
-9,424
-9,207
-9,018
-8,852
-8,706
-8,576
-8,461
-8,356
-8,259
-8,169
-8,082
-7,997
-7,913
-7,827
-7,739
-7,647
-7,551
-7,451
-7,345
-7,234
-7,12
-7,002
-6,883
-6,763
-6,645
-6,529
-6,418
-6,313
-6,216
-6,128
-6,05
-5,984
-5,93
-5,889
-5,861
-5,847
-5,846
-5,857
-5,88
-5,912
-5,952
-5,999
-6,05
-6,104
-6,157
-6,209
-6,257
-6,299
-6,333
-6,357
-6,368
-6,364
-6,343
-6,302
-6,239
-6,152
-6,039
-5,899
-5,73
-5,533
-5,307
-5,052
-4,767
-4,456
-4,118
-3,758
-3,377
-2,979
-2,569
-2,152
-1,735
-1,325
-0,929
-0,556
-0,212
0,093
0,353
0,559
0,706
0,788
0,8
0,734
0,584
0,344
0,008
-0,432
-0,98
-1,642
-2,423
-3,323
-4,34
-5,475
-6,725
-8,09
-9,572
-11,169
-12,878
-14,695
-16,614
-18,623
-20,708
-22,845
-25,006
-27,169
-29,309
-31,407
-33,446
-35,404
-37,264
-39,014
-40,636
-42,117
-43,447
-44,609
-45,594
-46,414
-47,086
-47,636
-48,102
-48,499
-48,837
-49,145
-49,448
-49,775
-50,158
-50,604
-51,103
-51,679
-52,365
-53,151
-53,977
-54,671
-54,962
-54,623
-53,486
-51,383
-48,202
-43,966
-38,795
-33,085
-27,509
-22,647
-18,99
-16,903
-16,342
-16,902
-18,009
-18,633
-17,391
-12,994
-4,081
10,427
30,63
55,938
85,408
117,553
150,466
182,002
209,557
230,56
244,102
250,628
249,758
240,955
222,964
193,561
155,128
113,111
72,466
39,362
15,073
-3,714
-18,929
-33,446
-47,937
-59,597
-66,974
-69,307
-66,791
-61,657
-55,939
-50,598
-46,063
-42,3
-39,229
-36,958
-35,546
-34,677
-33,705
-32,276
-30,329
-27,922
-25,281
-22,561
-19,818
-17,246
-15,138
-13,658
-12,867
-12,737
-13,121
-13,908
-15,033
-16,401
-17,915
-19,472
-20,949
-22,276
-23,437
-24,414
-25,207
-25,804
-26,16
-26,268
-26,164
-25,852
-25,324
-24,582
-23,597
-22,376
-21,02
-19,59
-18,082
-16,586
-15,294
-14,229
-13,349
-12,712
-12,03
-11,552
-12,55
-14,805
-17,132
-17,935
-13,142
-2,219
10,499
21,307
23,799
15,657
3,565
-7,503
-11,713
-5,519
5,2
16,221
24,723
27,911
28,833
29,823
31,185
33,975
37,392
40,616
43,977
47,433
50,991
54,795
58,744
62,737
66,778
70,842
74,869
78,835
82,745
86,588
90,362
94,065
97,671
101,156
104,511
107,718
110,759
113,617
116,275
118,714
120,923
122,888
124,596
126,037
127,199
128,074
128,653
128,929
128,898
128,556
127,901
126,931
125,648
124,054
122,154
119,954
117,46
114,683
111,631
108,318
104,755
100,959
96,943
92,725
88,323
83,755
79,039
74,197
69,249
64,214
59,115
53,972
48,805
43,636
38,484
33,37
28,313
23,332
18,444
13,667
9,017
4,508
0,156
-4,029
-8,033
-11,846
-15,461
-18,868
-22,062
-25,038
-27,792
-30,323
-32,629
-34,711
-36,571
-38,212
-39,638
-40,855
-41,869
-42,688
-43,319
-43,771
-44,055
-44,18
-44,156
-43,994
-43,706
-43,303
-42,797
-42,198
-41,517
-40,766
-39,956
-39,096
-38,197
-37,267
-36,315
-35,35
-34,38
-33,41
-32,449
-31,5
-30,57
-29,663
-28,783
-27,933
-27,114
-26,329
-25,579
-24,864
-24,184
-23,539
-22,928
-22,349
-21,801
-21,282
-20,79
-20,322
-19,877
-19,45
-19,04
-18,644
-18,26
-17,885
-17,519
-17,158
-16,802
-16,45
-16,102
-15,758
-15,417
-15,081
-14,749
-14,424
-14,106
-13,797
-13,5
-13,216
-12,948
-12,699
-12,471
-12,268
-12,092
-11,946
-11,833
-11,756
-11,718
-11,721
-11,769
-11,864
-12,008
-12,203
-12,451
-12,753
-13,111
-13,524
-13,992
-14,514
-15,088
-15,711
-16,382
-17,096
-17,848
-18,635
-19,45
-20,289
-21,143
-22,008
-22,875
-23,736
-24,585
-25,413
-26,212
-26,975
-27,694
-28,362
-28,97
-29,512
-29,98
-30,368
-30,669
-30,877
-30,986
-30,99
-30,886
-30,669
-30,337
-29,887
-29,317
-28,629
-27,823
-26,902
-25,867
-24,725
-23,48
-22,139
-20,71
-19,203
-17,628
-15,995
-14,318
-12,61
-10,884
-9,154
-7,435
-5,74
-4,085
-2,483
-0,949
0,504
1,864
3,116
4,247
5,242
6,091
6,783
7,305
7,645
7,793
7,739
7,481
7,014
6,335
5,438
4,318
2,975
1,415
-0,354
-2,322
-4,48
-6,815
-9,305
-11,915
-14,611
-17,364
-20,149
-22,947
-25,735
-28,48
-31,147
-33,707
-36,143
-38,451
-40,621
-42,639
-44,494
-46,196
-47,775
-49,283
-50,77
-52,263
-53,783
-55,343
-56,958
-58,655
-60,466
-62,404
-64,464
-66,631
-68,882
-71,214
-73,645
-76,101
-78,405
-80,3
-81,461
-81,616
-80,601
-78,276
-74,482
-69,226
-62,751
-55,513
-48,236
-41,625
-36,108
-31,833
-28,802
-26,708
-24,77
-21,958
-16,907
-7,961
6,257
26,482
53,059
84,966
119,629
154,761
188,367
219,823
249,794
276,798
297,205
305,205
294,634
264,141
215,407
152,667
83,843
14,776
-47,315
-92,201
-116,158
-118,181
-101,707
-79,519
-59,793
-46,939
-43,685
-44,221
-44,754
-44,496
-42,132
-40,57
-41,693
-45,089
-50,38
-55,667
-59,688
-62,433
-63,862
-64,331
-64,078
-63,035
-61,637
-60,378
-59,458
-59,047
-59,103
-59,46
-60,138
-61,172
-62,406
-63,698
-64,947
-66,021
-66,889
-67,548
-67,943
-68,037
-67,834
-67,327
-66,523
-65,449
-64,109
-62,523
-60,714
-58,7
-56,499
-54,136
-51,635
-49,03
-46,358
-43,645
-40,912
-38,175
-35,446
-32,736
-30,054
-27,401
-24,773
-22,165
-19,574
-17,003
-14,451
-11,916
-9,392
-6,874
-4,357
-1,839
0,684
3,213
5,752
8,302
10,864
13,435
16,013
18,597
21,186
23,778
26,373
28,968
31,56
34,147
36,727
39,296
41,849
44,382
46,89
49,365
51,803
54,196
56,537
58,818
61,031
63,168
65,22
67,177
69,03
70,77
72,385
73,868
75,207
76,395
77,42
78,276
78,953
79,445
79,746
79,848
79,748
79,441
78,924
78,194
77,251
76,094
74,723
73,14
71,347
69,348
67,146
64,748
62,158
59,386
56,437
53,322
50,049
46,63
43,074
39,395
35,605
31,717
27,745
23,704
19,607
15,471
11,311
7,141
2,977
-1,166
-5,274
-9,332
-13,326
-17,243
-21,071
-24,797
-28,411
-31,9
-35,256
-38,468
-41,529
-44,43
-47,165
-49,727
-52,111
-54,313
-56,328
-58,153
-59,787
-61,228
-62,476
-63,532
-64,396
-65,071
-65,561
-65,87
-66,003
-65,965
-65,764
-65,405
-64,897
-64,248
-63,466
-62,56
-61,538
-60,41
-59,185
-57,871
-56,478
-55,015
-53,491
-51,914
-50,295
-48,641
-46,962
-45,265
-43,559
-41,853
-40,154
-38,471
-36,81
-35,179
-33,585
-32,034
-30,534
-29,088
-27,702
-26,38
-25,127
-23,945
-22,838
-21,807
-20,854
-19,98
-19,186
-18,473
-17,84
-17,286
-16,811
-16,414
-16,092
-15,844
-15,668
-15,562
-15,521
-15,543
-15,624
-15,76
-15,946
-16,177
-16,449
-16,753
-17,086
-17,44
-17,807
-18,182
-18,557
-18,924
-19,276
-19,606
-19,906
-20,169
-20,386
-20,552
-20,659
-20,7
-20,667
-20,556
-20,36
-20,073
-19,69
-19,206
-18,617
-17,919
-17,108
-16,182
-15,137
-13,974
-12,69
-11,286
-9,764
-8,124
-6,37
-4,505
-2,533
-0,462
1,703
3,955
6,286
8,686
11,145
13,654
16,2
18,771
21,355
23,937
26,502
29,035
31,522
33,947
36,296
38,553
40,703
42,733
44,63
46,382
47,975
49,398
50,637
51,682
52,523
53,151
53,558
53,735
53,674
53,371
52,825
52,038
51,008
49,734
48,212
46,443
44,437
42,204
39,758
37,113
34,289
31,311
28,218
25,048
21,84
18,622
15,417
12,254
9,164
6,179
3,335
0,653
-1,863
-4,2
-6,353
-8,324
-10,126
-11,796
-13,394
-14,972
-16,584
-18,272
-20,065
-21,993
-24,068
-26,306
-28,726
-31,325
-34,092
-37,007
-40,009
-43,04
-46,067
-48,96
-51,536
-53,544
-54,614
-54,494
-53,098
-50,339
-46,147
-40,561
-33,679
-25,91
-18,035
-10,546
-3,576
2,904
9,106
15,276
21,734
29,336
39,5
53,326
71,294
93,353
118,961
147,363
177,494
207,526
234,777
256,419
270,076
274,573
270,008
256,729
235,409
205,277
164,138
112,566
53,633
-5,202
-52,222
-80,369
-88,474
-81,179
-68,64
-57,972
-51,493
-48,556
-46,082
-42,631
-38,813
-35,736
-34,614
-35,463
-37,535
-39,951
-41,67
-42,219
-41,541
-39,686
-36,984
-33,787
-30,34
-26,954
-23,933
-21,425
-19,503
-18,158
-17,275
-16,754
-16,517
-16,474
-16,563
-16,732
-16,92
-17,066
-17,111
-17,008
-16,729
-16,258
-15,582
-14,696
-13,603
-12,319
-10,876
-9,3
-7,615
-5,839
-3,984
-2,068
-0,119
1,835
3,763
5,642
7,461
9,212
10,889
12,494
14,029
15,507
16,945
18,357
19,756
21,15
22,546
23,957
25,394
26,869
28,392
29,972
31,619
33,34
35,142
37,029
39,006
41,074
43,233
45,483
47,825
50,257
52,78
55,39
58,084
60,857
63,705
66,62
69,594
72,619
75,682
78,773
81,879
84,987
88,082
91,15
94,176
97,145
100,041
102,847
105,548
108,13
110,575
112,87
115
116,951
118,71
120,264
121,602
122,712
123,585
124,211
124,583
124,693
124,537
124,11
123,409
122,433
121,182
119,657
117,862
115,8
113,478
110,902
108,083
105,029
101,751
98,263
94,578
90,71
86,673
82,485
78,16
73,717
69,172
64,542
59,845
55,099
50,323
45,532
40,746
35,982
31,257
26,588
21,991
17,483
13,077
8,79
4,634
0,622
-3,234
-6,923
-10,436
-13,763
-16,896
-19,83
-22,559
-25,078
-27,386
-29,479
-31,358
-33,022
-34,474
-35,715
-36,748
-37,579
-38,211
-38,65
-38,904
-38,978
-38,882
-38,623
-38,21
-37,653
-36,962
-36,148
-35,22
-34,191
-33,071
-31,872
-30,605
-29,282
-27,913
-26,512
-25,088
-23,652
-22,217
-20,792
-19,387
-18,011
-16,675
-15,387
-14,156
-12,988
-11,892
-10,874
-9,94
-9,098
-8,351
-7,705
-7,164
-6,732
-6,412
-6,207
-6,119
-6,15
-6,3
-6,57
-6,961
-7,471
-8,1
-8,847
-9,709
-10,684
-11,769
-12,962
-14,257
-15,651
-17,14
-18,718
-20,38
-22,121
-23,934
-25,815
-27,755
-29,749
-31,789
-33,868
-35,979
-38,113
-40,263
-42,421
-44,577
-46,725
-48,854
-50,957
-53,025
-55,049
-57,022
-58,935
-60,778
-62,544
-64,226
-65,814
-67,301
-68,679
-69,941
-71,08
-72,09
-72,965
-73,699
-74,288
-74,726
-75,01
-75,137
-75,105
-74,91
-74,552
-74,031
-73,348
-72,504
-71,502
-70,344
-69,034
-67,577
-65,98
-64,248
-62,389
-60,41
-58,32
-56,129
-53,847
-51,485
-49,054
-46,567
-44,037
-41,478
-38,905
-36,333
-33,777
-31,251
-28,771
-26,35
-24,004
-21,745
-19,586
-17,539
-15,619
-13,837
-12,207
-10,739
-9,443
-8,329
-7,405
-6,68
-6,159
-5,843
-5,737
-5,841
-6,163
-6,706
-7,474
-8,459
-9,655
-11,05
-12,63
-14,378
-16,268
-18,265
-20,335
-22,449
-24,583
-26,716
-28,822
-30,868
-32,816
-34,631
-36,29
-37,78
-39,092
-40,216
-41,155
-41,929
-42,578
-43,158
-43,715
-44,281
-44,88
-45,534
-46,278
-47,15
-48,185
-49,407
-50,808
-52,357
-54,025
-55,769
-57,529
-59,224
-60,726
-61,878
-62,576
-62,752
-62,329
-61,21
-59,242
-56,236
-52,041
-46,573
-39,729
-31,336
-21,428
-10,294
1,811
14,462
27,68
42,283
57,977
73,741
88,127
98,459
105,324
112,323
123,074
142,39
170,204
201,147
230,295
251,725
262,768
265,299
259,921
247,206
227,771
200,888
167,489
130,337
91,932
54,973
22,238
-4,638
-24,793
-37,698
-43,79
-44,428
-40,949
-34,996
-28,6
-23,055
-19,113
-17,305
-17,562
-19,464
-22,653
-26,48
-30,042
-32,856
-34,718
-35,577
-35,687
-35,302
-34,593
-33,836
-33,365
-33,361
-33,914
-35,026
-36,575
-38,461
-40,615
-42,941
-45,355
-47,783
-50,145
-52,368
-54,407
-56,226
-57,801
-59,122
-60,175
-60,949
-61,451
-61,699
-61,72
-61,538
-61,173
-60,641
-59,958
-59,149
-58,242
-57,27
-56,255
-55,212
-54,15
-53,076
-51,996
-50,913
-49,821
-48,711
-47,571
-46,395
-45,177
-43,91
-42,584
-41,188
-39,708
-38,136
-36,464
-34,687
-32,796
-30,788
-28,671
-26,458
-24,157
-21,771
-19,289
-16,696
-13,996
-11,189
-8,241
-5,111
-1,778
1,764
5,483
9,313
13,231
17,18
20,968
24,451
27,639
30,552
33,299
35,586
36,607
35,979
34,252
33,992
38,653
50,261
68,299
87,007
99,08
99,817
87,609
68,978
53,261
46,448
52,451
67,264
83,025
95,107
99,806
98,054
94,114
89,966
87,022
85,452
83,833
81,795
79,463
76,81
74,092
71,362
68,439
65,284
61,924
58,346
54,552
50,586
46,497
42,358
38,263
34,257
30,333
26,47
22,655
18,884
15,162
11,497
7,88
4,303
0,776
-2,672
-6,015
-9,23
-12,314
-15,302
-18,214
-21,038
-23,781
-26,457
-29,07
-31,653
-34,213
-36,672
-38,989
-41,194
-43,218
-44,902
-46,245
-47,291
-47,986
-48,611
-48,917
-47,688
-45,158
-42,429
-41,013
-44,799
-54,248
-65,22
-74,191
-74,985
-65,389
-51,85
-39,145
-32,949
-36,73
-44,76
-52,93
-58,462
-58,582
-56,303
-53,944
-51,835
-51,054
-50,807
-50,273
-49,783
-49,296
-48,834
-48,56
-48,381
-48,21
-48,066
-47,936
-47,782
-47,6
-47,403
-47,195
-46,983
-46,781
-46,584
-46,399
-46,223
-46,047
-45,894
-45,782
-45,722
-45,734
-45,802
-45,895
-46,031
-46,247
-46,451
-46,537
-46,568
-46,539
-46,43
-46,472
-46,042
-44,533
-42,812
-41,143
-41,116
-44,637
-49,598
-54,593
-57,53
-55,532
-51,143
-46,519
-43,136
-43,433
-45,667
-48,065
-50,235
-51,097
-51,274
-51,57
-51,829
-52,153
-52,483
-52,656
-52,774
-52,919
-53,062
-53,191
-53,315
-53,425
-53,514
-53,574
-53,585
-53,525
-53,397
-53,205
-52,94
-52,601
-52,18
-51,674
-51,08
-50,396
-49,618
-48,741
-47,762
-46,677
-45,485
-44,184
-42,773
-41,251
-39,617
-37,872
-36,016
-34,053
-31,983
-29,81
-27,538
-25,171
-22,714
-20,173
-17,555
-14,868
-12,118
-9,315
-6,468
-3,588
-0,684
2,231
5,146
8,049
10,926
13,762
16,545
19,261
21,895
24,433
26,862
29,168
31,341
33,367
35,236
36,936
38,456
39,784
40,913
41,835
42,542
43,025
43,277
43,293
43,074
42,618
41,926
40,996
39,825
38,414
36,774
34,918
32,859
30,609
28,184
25,609
22,915
20,138
17,31
14,455
11,595
8,754
5,963
3,262
0,687
-1,741
-4,015
-6,129
-8,077
-9,853
-11,459
-12,923
-14,289
-15,596
-16,877
-18,143
-19,403
-20,679
-21,985
-23,356
-24,821
-26,388
-28,054
-29,8
-31,569
-33,33
-35,069
-36,679
-38,011
-38,844
-38,854
-37,865
-35,841
-32,733
-28,503
-23,121
-16,621
-9,367
-2,064
4,795
11,064
16,884
22,586
28,344
34,385
41,437
50,758
63,563
80,491
101,381
125,562
152,42
181,048
209,955
236,971
259,496
275,447
283,651
283,448
274,413
256,811
231,569
200,42
165,972
130,617
96,296
64,93
38,131
16,779
1,23
-8,868
-14,677
-17,27
-17,686
-17,282
-17,168
-18,009
-20,215
-23,739
-28,117
-32,971
-37,848
-42,072
-45,196
-46,991
-47,338
-46,375
-44,372
-41,575
-38,309
-34,97
-31,808
-28,97
-26,549
-24,526
-22,883
-21,608
-20,649
-19,936
-19,421
-19,071
-18,869
-18,812
-18,864
-18,963
-19,038
-19,013
-18,84
-18,493
-17,949
-17,198
-16,235
-15,069
-13,72
-12,216
-10,576
-8,817
-6,951
-4,989
-2,951
-0,863
1,247
3,348
5,42
7,453
9,439
11,375
13,263
15,111
16,929
18,735
20,541
22,357
24,191
26,051
27,944
29,881
31,87
33,92
36,039
38,231
40,501
42,854
45,289
47,807
50,406
53,081
55,828
58,643
61,52
64,454
67,439
70,467
73,531
76,622
79,731
82,847
85,959
89,052
92,116
95,135
98,095
100,982
103,782
106,479
109,06
111,508
113,812
115,956
117,928
119,716
121,307
122,691
123,857
124,797
125,502
125,966
126,184
126,151
125,865
125,324
124,529
123,479
122,178
120,629
118,836
116,806
114,542
112,054
109,354
106,453
103,365
100,103
96,675
93,097
89,391
85,569
81,632
77,587
73,438
69,197
64,904
60,578
56,214
51,84
47,52
43,306
39,252
35,38
31,644
28,033
24,623
21,368
18,045
14,597
11,108
7,556
4,176
0,581
-4,687
-11,439
-18,278
-23,112
-21,809
-14,278
-4,752
2,669
2,149
-7,159
-19,643
-30,936
-36,466
-35,063
-30,904
-26,677
-24,078
-23,79
-24,135
-24,265
-24,267
-24,076
-23,947
-23,974
-23,935
-23,756
-23,488
-23,132
-22,683
-22,157
-21,57
-20,948
-20,337
-19,755
-19,191
-18,641
-18,113
-17,61
-17,137
-16,697
-16,287
-15,909
-15,567
-15,265
-15,005
-14,788
-14,615
-14,486
-14,402
-14,362
-14,367
-14,416
-14,507
-14,639
-14,81
-15,019
-15,263
-15,54
-15,847
-16,182
-16,541
-16,923
-17,323
-17,74
-18,17
-18,612
-19,063
-19,52
-19,982
-20,447
-20,913
-21,378
-21,841
-22,301
-22,755
-23,203
-23,644
-24,076
-24,5
-24,914
-25,318
-25,712
-26,098
-26,474
-26,843
-27,204
-27,56
-27,912
-28,262
-28,611
-28,963
-29,32
-29,683
-30,057
-30,442
-30,843
-31,261
-31,699
-32,159
-32,642
-33,151
-33,687
-34,251
-34,845
-35,469
-36,126
-36,815
-37,538
-38,293
-39,083
-39,905
-40,76
-41,646
-42,563
-43,508
-44,479
-45,475
-46,491
-47,526
-48,575
-49,635
-50,701
-51,768
-52,831
-53,885
-54,924
-55,943
-56,936
-57,897
-58,82
-59,7
-60,532
-61,309
-62,027
-62,679
-63,26
-63,766
-64,191
-64,529
-64,776
-64,928
-64,981
-64,931
-64,775
-64,511
-64,136
-63,649
-63,05
-62,339
-61,515
-60,58
-59,536
-58,385
-57,132
-55,781
-54,337
-52,804
-51,191
-49,502
-47,747
-45,932
-44,065
-42,155
-40,211
-38,242
-36,26
-34,275
-32,297
-30,341
-28,417
-26,541
-24,724
-22,98
-21,322
-19,762
-18,313
-16,987
-15,793
-14,742
-13,843
-13,105
-12,537
-12,148
-11,944
-11,929
-12,108
-12,486
-13,069
-13,858
-14,85
-16,045
-17,44
-19,034
-20,83
-22,826
-25,013
-27,381
-29,916
-32,604
-35,427
-38,361
-41,371
-44,419
-47,465
-50,478
-53,434
-56,307
-59,067
-61,68
-64,109
-66,33
-68,337
-70,126
-71,688
-73,028
-74,152
-75,096
-75,923
-76,696
-77,472
-78,301
-79,217
-80,254
-81,439
-82,796
-84,348
-86,104
-88,053
-90,183
-92,461
-94,834
-97,271
-99,659
-101,805
-103,481
-104,333
-104,01
-102,33
-99,158
-94,4
-88,121
-80,423
-71,563
-62,25
-53,263
-45,013
-37,667
-31,046
-24,703
-18,38
-11,494
-2,629
9,898
27,433
50,017
76,201
104,541
134,496
167,344
204,514
244,215
281,377
307,272
313,945
298,81
263,68
216,252
163,821
110,234
59,857
13,224
-27,923
-59,292
-81,545
-94,852
-100,181
-101,315
-98,533
-92,217
-84,214
-75,331
-67,359
-61,777
-58,603
-57,606
-58,21
-59,663
-61,224
-62,128
-61,916
-60,463
-57,942
-54,701
-51,042
-47,229
-43,573
-40,393
-37,883
-36,113
-35,024
-34,474
-34,342
-34,539
-34,973
-35,547
-36,169
-36,747
-37,186
-37,435
-37,463
-37,242
-36,763
-36,013
-34,982
-33,686
-32,158
-30,428
-28,528
-26,484
-24,313
-22,042
-19,705
-17,339
-14,985
-12,67
-10,409
-8,215
-6,093
-4,047
-2,077
-0,173
1,681
3,499
5,292
7,07
8,838
10,608
12,391
14,202
16,05
17,946
19,899
21,916
24,005
26,172
28,421
30,753
33,168
35,668
38,253
40,923
43,679
46,519
49,441
52,441
55,516
58,661
61,867
65,128
68,433
71,773
75,136
78,511
81,884
85,242
88,572
91,86
95,09
98,248
101,317
104,284
107,132
109,847
112,413
114,817
117,043
119,081
120,917
122,54
123,94
125,11
126,039
126,723
127,155
127,332
127,25
126,909
126,308
125,449
124,335
122,97
121,36
119,513
117,436
115,139
112,634
109,93
107,042
103,982
100,764
97,404
93,916
90,318
86,626
82,856
79,025
75,151
71,249
67,336
63,429
59,542
55,691
51,89
48,152
44,49
40,915
37,439
34,072
30,822
27,698
24,707
21,854
19,145
16,583
14,171
11,911
9,805
7,854
6,055
4,408
2,912
1,562
0,356
-0,712
-1,645
-2,45
-3,133
-3,7
-4,157
-4,513
-4,773
-4,945
-5,037
-5,055
-5,007
-4,899
-4,737
-4,528
-4,278
-3,994
-3,679
-3,337
-2,973
-2,59
-2,191
-1,782
-1,364
-0,941
-0,52
-0,111
0,285
0,657
1,003
1,336
1,655
1,958
2,275
2,622
2,994
3,407
3,862
4,313
4,74
5,148
5,416
5,439
5,326
5,086
4,647
4,279
3,579
2,016
0,352
-1,144
-1,166
2,446
8,868
16,539
22,402
21,99
14,385
1,769
-11,115
-18,644
-17,755
-9,743
0,549
8,643
11,415
8,919
4,35
-0,123
-3,16
-4,466
-5,297
-6,201
-7,154
-8,207
-9,145
-9,912
-10,694
-11,548
-12,452
-13,425
-14,463
-15,549
-16,671
-17,808
-18,924
-20,004
-21,055
-22,076
-23,059
-24
-24,893
-25,734
-26,52
-27,249
-27,914
-28,509
-29,031
-29,473
-29,835
-30,112
-30,301
-30,399
-30,401
-30,306
-30,112
-29,822
-29,438
-28,961
-28,391
-27,725
-26,969
-26,125
-25,185
-24,138
-22,972
-21,68
-20,281
-18,802
-17,256
-15,668
-14,087
-12,572
-11,18
-9,953
-8,869
-7,859
-6,903
-5,937
-4,763
-3,247
-1,4
0,745
2,952
5,378
9,03
14,487
21,044
25,984
24,668
13,845
-4,93
-24,723
-35,699
-30,382
-9,288
18,538
40,635
47,357
37,044
16,52
-4,25
-17,883
-22,148
-19,938
-16,184
-13,998
-14,289
-16,427
-19,014
-21,512
-24,035
-26,654
-29,494
-32,49
-35,415
-38,168
-40,72
-43,027
-45,079
-46,896
-48,5
-49,936
-51,264
-52,54
-53,805
-55,089
-56,405
-57,756
-59,14
-60,563
-62,052
-63,616
-65,26
-66,977
-68,72
-70,467
-72,224
-73,914
-75,39
-76,438
-76,711
-75,924
-73,994
-70,846
-66,452
-60,942
-54,402
-47,128
-39,829
-33,145
-27,4
-22,683
-18,665
-14,747
-10,612
-5,664
1,253
11,329
25,592
44,42
67,214
92,901
120,633
149,271
177,101
202,025
221,65
234,307
239,408
236,871
226,647
208,933
184,536
155,021
122,643
89,398
56,767
26,077
-1,301
-24,077
-41,513
-53,602
-60,953
-64,328
-64,448
-62,197
-58,756
-55,301
-52,606
-51,014
-50,502
-50,886
-52,013
-53,581
-55,025
-55,856
-55,836
-54,935
-53,37
-51,403
-49,208
-47
-45,058
-43,58
-42,68
-42,385
-42,602
-43,226
-44,177
-45,366
-46,72
-48,176
-49,667
-51,125
-52,481
-53,68
-54,686
-55,473
-56,021
-56,316
-56,351
-56,133
-55,691
-55,054
-54,246
-53,291
-52,2
-50,991
-49,688
-48,32
-46,917
-45,5
-44,08
-42,664
-41,26
-39,87
-38,493
-37,123
-35,744
-34,345
-32,917
-31,455
-29,953
-28,407
-26,806
-25,144
-23,415
-21,613
-19,734
-17,776
-15,736
-13,612
-11,406
-9,119
-6,756
-4,321
-1,816
0,754
3,384
6,069
8,802
11,576
14,383
17,215
20,061
22,911
25,753
28,575
31,365
34,111
36,8
39,419
41,955
44,397
46,731
48,946
51,03
52,97
54,756
56,378
57,825
59,089
60,16
61,031
61,696
62,148
62,384
62,399
62,191
61,758
61,101
60,221
59,119
57,799
56,265
54,524
52,581
50,447
48,128
45,637
42,983
40,178
37,235
34,166
30,985
27,704
24,337
20,899
17,402
13,862
10,292
6,706
3,119
-0,457
-4,008
-7,521
-10,983
-14,383
-17,709
-20,95
-24,097
-27,14
-30,069
-32,877
-35,557
-38,101
-40,506
-42,765
-44,875
-46,834
-48,64
-50,292
-51,789
-53,132
-54,322
-55,361
-56,252
-56,996
-57,596
-58,055
-58,382
-58,581
-58,659
-58,621
-58,471
-58,215
-57,868
-57,432
-56,904
-56,281
-55,562
-54,754
-53,881
-52,954
-51,961
-50,924
-49,89
-48,896
-47,981
-47,156
-46,376
-45,635
-44,992
-44,393
-43,649
-42,732
-41,701
-40,533
-39,448
-38,035
-35,1
-30,963
-26,698
-24,169
-26,791
-34,2
-43,011
-49,793
-49,686
-42,593
-33,068
-24,617
-21,089
-22,986
-26,887
-30,748
-33,106
-33,593
-33,606
-33,735
-33,94
-34,26
-34,478
-34,547
-34,651
-34,838
-35,074
-35,36
-35,701
-36,085
-36,501
-36,927
-37,327
-37,689
-38,024
-38,333
-38,612
-38,858
-39,066
-39,236
-39,369
-39,465
-39,52
-39,531
-39,499
-39,421
-39,299
-39,132
-38,922
-38,669
-38,375
-38,041
-37,669
-37,262
-36,822
-36,351
-35,854
-35,332
-34,789
-34,229
-33,655
-33,071
-32,48
-31,886
-31,293
-30,705
-30,124
-29,555
-29
-28,464
-27,948
-27,457
-26,993
-26,558
-26,155
-25,785
-25,451
-25,154
-24,894
-24,673
-24,489
-24,343
-24,234
-24,16
-24,12
-24,113
-24,135
-24,184
-24,256
-24,348
-24,456
-24,576
-24,704
-24,835
-24,965
-25,088
-25,201
-25,297
-25,373
-25,423
-25,442
-25,426
-25,369
-25,265
-25,11
-24,899
-24,627
-24,29
-23,885
-23,406
-22,852
-22,219
-21,506
-20,71
-19,831
-18,868
-17,822
-16,692
-15,48
-14,19
-12,823
-11,384
-9,875
-8,303
-6,673
-4,991
-3,262
-1,493
0,308
2,135
3,978
5,83
7,683
9,525
11,348
13,14
14,888
16,583
18,213
19,767
21,234
22,604
23,867
25,017
26,045
26,944
27,706
28,326
28,796
29,114
29,275
29,274
29,109
28,776
28,275
27,611
26,785
25,798
24,652
23,343
21,874
20,256
18,498
16,61
14,61
12,514
10,352
8,166
5,993
3,872
1,835
-0,091
-1,872
-3,468
-4,846
-5,976
-6,839
-7,429
-7,742
-7,776
-7,548
-7,086
-6,452
-5,728
-4,986
-4,305
-3,749
-3,366
-3,222
-3,363
-3,789
-4,498
-5,474
-6,684
-8,112
-9,704
-11,374
-13,074
-14,79
-16,416
-17,643
-18,1
-17,558
-15,793
-13,155
-9,778
-4,682
2,226
11,943
25,384
40,685
57,708
74,768
88,411
98,669
104,553
107,199
112,058
122,822
142,54
172,788
210,581
251,898
293,559
331,417
361,498
380,078
383,129
368,049
335,98
291,265
237,893
182,081
129,89
84,12
49,854
28,364
15,788
10,001
6,943
4,065
3,424
5,358
9,19
14,144
17,957
19,393
18,719
16,481
13,346
10,077
7,424
5,821
5,532
6,62
8,739
11,509
14,672
17,876
20,756
23,117
24,818
25,81
26,197
26,066
25,488
24,572
23,41
22,064
20,602
19,085
17,575
16,156
14,89
13,813
12,953
12,322
11,928
11,775
11,848
12,118
12,558
13,144
13,859
14,69
15,614
16,604
17,629
18,654
19,658
20,628
21,557
22,442
23,282
24,084
24,861
25,631
26,408
27,205
28,031
28,894
29,805
30,776
31,82
32,946
34,165
35,484
36,911
38,451
40,108
41,884
43,779
45,791
47,917
50,157
52,507
54,963
57,522
60,178
62,924
65,753
68,657
71,624
74,645
77,707
80,797
83,901
87,006
90,096
93,155
96,17
99,123
101,998
104,78
107,452
109,999
112,404
114,654
116,733
118,627
120,324
121,812
123,08
124,118
124,918
125,472
125,775
125,82
125,606
125,128
124,387
123,382
122,116
120,59
118,81
116,78
114,508
112,001
109,268
106,32
103,167
99,821
96,296
92,605
88,762
84,783
80,682
76,477
72,182
67,816
63,393
58,931
54,446
49,954
45,47
41,009
36,586
32,216
27,911
23,685
19,55
15,517
11,597
7,8
4,135
0,611
-2,765
-5,987
-9,048
-11,942
-14,667
-17,217
-19,592
-21,788
-23,806
-25,645
-27,306
-28,791
-30,103
-31,245
-32,221
-33,036
-33,694
-34,202
-34,565
-34,791
-34,884
-34,854
-34,707
-34,45
-34,091
-33,638
-33,099
-32,481
-31,793
-31,042
-30,236
-29,384
-28,493
-27,571
-26,627
-25,667
-24,699
-23,732
-22,771
-21,824
-20,897
-19,996
-19,127
-18,295
-17,505
-16,761
-16,068
-15,428
-14,844
-14,32
-13,857
-13,457
-13,122
-12,853
-12,651
-12,515
-12,446
-12,443
-12,507
-12,636
-12,828
-13,082
-13,397
-13,769
-14,197
-14,677
-15,206
-15,781
-16,398
-17,053
-17,743
-18,463
-19,209
-19,978
-20,765
-21,568
-22,381
-23,202
-24,027
-24,854
-25,678
-26,499
-27,312
-28,117
-28,91
-29,691
-30,457
-31,207
-31,94
-32,656
-33,354
-34,033
-34,693
-35,336
-35,961
-36,569
-37,162
-37,741
-38,307
-38,863
-39,41
-39,951
-40,487
-41,022
-41,558
-42,097
-42,641
-43,193
-43,755
-44,329
-44,916
-45,518
-46,136
-46,772
-47,426
-48,098
-48,789
-49,5
-50,229
-50,976
-51,741
-52,522
-53,318
-54,127
-54,948
-55,777
-56,612
-57,45
-58,288
-59,122
-59,95
-60,765
-61,565
-62,345
-63,101
-63,828
-64,521
-65,176
-65,788
-66,353
-66,865
-67,321
-67,716
-68,045
-68,306
-68,495
-68,608
-68,643
-68,598
-68,469
-68,255
-67,955
-67,568
-67,094
-66,531
-65,88
-65,143
-64,322
-63,417
-62,431
-61,367
-60,229
-59,021
-57,747
-56,413
-55,022
-53,583
-52,1
-50,58
-49,032
-47,463
-45,882
-44,298
-42,722
-41,162
-39,631
-38,136
-36,689
-35,298
-33,973
-32,723
-31,554
-30,476
-29,497
-28,625
-27,87
-27,239
-26,739
-26,377
-26,159
-26,092
-26,181
-26,428
-26,835
-27,405
-28,142
-29,056
-30,15
-31,422
-32,865
-34,473
-36,233
-38,132
-40,149
-42,252
-44,409
-46,591
-48,771
-50,934
-53,053
-55,1
-57,038
-58,825
-60,438
-61,869
-63,115
-64,173
-65,051
-65,763
-66,354
-66,896
-67,45
-68,064
-68,775
-69,608
-70,612
-71,843
-73,357
-75,201
-77,382
-79,882
-82,669
-85,706
-88,932
-92,261
-95,555
-98,641
-101,366
-103,587
-105,171
-105,979
-105,823
-104,516
-101,868
-97,675
-91,845
-84,389
-75,393
-65,065
-53,638
-41,304
-28,353
-15,196
-2,036
11,192
24,783
39,299
55,206
72,645
91,71
112,57
134,984
158,077
180,527
200,536
216,052
225,44
227,387
220,409
204,314
180,683
150,47
114,777
74,693
29,396
-18,42
-62,542
-97,717
-118,195
-123,178
-118,002
-107,706
-97,544
-90,21
-84,548
-79,93
-75,857
-72,356
-70,657
-70,955
-72,747
-75,304
-77,421
-78,472
-78,416
-77,311
-75,414
-73,015
-70,332
-67,673
-65,387
-63,654
-62,517
-61,936
-61,782
-61,943
-62,343
-62,896
-63,516
-64,132
-64,67
-65,052
-65,242
-65,214
-64,948
-64,439
-63,677
-62,66
-61,405
-59,946
-58,317
-56,546
-54,657
-52,663
-50,585
-48,449
-46,285
-44,129
-42,005
-39,926
-37,903
-35,943
-34,051
-32,229
-30,468
-28,754
-27,072
-25,414
-23,771
-22,137
-20,504
-18,859
-17,193
-15,494
-13,753
-11,963
-10,115
-8,203
-6,22
-4,163
-2,028
0,185
2,477
4,849
7,302
9,835
12,447
15,135
17,897
20,728
23,624
26,576
29,578
32,62
35,693
38,785
41,887
44,986
48,069
51,123
54,136
57,092
59,979
62,78
65,482
68,07
70,53
72,849
75,012
77,008
78,824
80,448
81,871
83,083
84,074
84,839
85,369
85,661
85,709
85,513
85,07
84,382
83,449
82,275
80,864
79,223
77,358
75,278
72,99
70,507
67,838
64,996
61,994
58,846
55,565
52,167
48,667
45,08
41,422
37,71
33,958
30,182
26,398
22,621
18,866
15,147
11,479
7,874
4,346
0,906
-2,433
-5,663
-8,773
-11,756
-14,603
-17,308
-19,866
-22,273
-24,523
-26,616
-28,547
-30,317
-31,926
-33,373
-34,66
-35,789
-36,764
-37,587
-38,261
-38,792
-39,184
-39,442
-39,571
-39,576
-39,464
-39,24
-38,91
-38,481
-37,958
-37,349
-36,66
-35,897
-35,065
-34,172
-33,222
-32,221
-31,176
-30,089
-28,968
-27,817
-26,639
-25,441
-24,225
-22,996
-21,758
-20,514
-19,267
-18,021
-16,778
-15,542
-14,315
-13,1
-11,901
-10,719
-9,559
-8,422
-7,312
-6,23
-5,18
-4,163
-3,183
-2,241
-1,34
-0,482
0,331
1,097
1,813
2,479
3,092
3,651
4,155
4,602
4,993
5,326
5,601
5,817
5,974
6,073
6,114
6,098
6,024
5,896
5,714
5,481
5,199
4,871
4,5
4,088
3,64
3,159
2,648
2,112
1,556
0,982
0,397
-0,197
-0,793
-1,388
-1,977
-2,557
-3,122
-3,669
-4,195
-4,696
-5,17
-5,612
-6,022
-6,395
-6,731
-7,027
-7,282
-7,496
-7,667
-7,797
-7,884
-7,931
-7,939
-7,908
-7,842
-7,743
-7,612
-7,453
-7,269
-7,063
-6,84
-6,601
-6,352
-6,097
-5,839
-5,582
-5,329
-5,084
-4,849
-4,629
-4,423
-4,236
-4,067
-3,92
-3,794
-3,69
-3,608
-3,547
-3,508
-3,488
-3,486
-3,499
-3,524
-3,557
-3,596
-3,635
-3,671
-3,699
-3,712
-3,707
-3,678
-3,617
-3,52
-3,379
-3,188
-2,941
-2,631
-2,254
-1,804
-1,276
-0,666
0,03
0,814
1,69
2,658
3,721
4,879
6,131
7,476
8,912
10,437
12,047
13,737
15,503
17,338
19,235
21,189
23,19
25,231
27,301
29,392
31,492
33,589
35,673
37,728
39,742
41,7
43,588
45,393
47,101
48,7
50,176
51,521
52,724
53,778
54,672
55,398
55,949
56,319
56,502
56,491
56,281
55,87
55,259
54,451
53,45
52,259
50,878
49,307
47,55
45,614
43,505
41,233
38,81
36,256
33,601
30,884
28,141
25,406
22,705
20,058
17,491
15,035
12,718
10,568
8,598
6,817
5,244
3,891
2,755
1,815
1,015
0,283
-0,435
-1,181
-1,983
-2,868
-3,879
-5,061
-6,452
-8,076
-9,919
-11,975
-14,277
-16,796
-19,432
-21,996
-24,165
-25,611
-26,105
-25,456
-23,516
-20,342
-16,073
-10,999
-5,674
-0,667
3,495
6,488
8,381
9,678
11,044
13,279
17,451
24,862
37,075
55,22
78,992
106,685
136,44
167,137
199,564
235,235
272,924
307,955
332,621
339,496
325,443
292,963
248,137
196,52
142,969
90,975
44,122
7,852
-14,739
-24,594
-26,123
-25,257
-26,021
-28,729
-31,267
-32,502
-32,369
-31,697
-32,061
-33,765
-36,288
-39,168
-41,641
-43,036
-43,238
-42,388
-40,217
-36,071
-30,387
-24,285
-20,014
-21,377
-28,068
-36,642
-43,315
-42,653
-34,707
-24,402
-15,398
-11,802
-14,068
-18,507
-23,049
-26,228
-27,51
-28,219
-28,879
-29,337
-29,645
-29,608
-29,146
-28,441
-27,575
-26,544
-25,394
-24,173
-22,88
-21,508
-20,059
-18,522
-16,924
-15,318
-13,732
-12,179
-10,667
-9,199
-7,776
-6,399
-5,06
-3,74
-2,428
-1,114
0,21
1,548
2,908
4,298
5,729
7,21
8,749
10,355
12,032
13,784
15,614
17,524
19,515
21,583
23,728
25,948
28,241
30,605
33,038
35,536
38,093
40,706
43,367
46,069
48,803
51,559
54,327
57,096
59,852
62,584
65,278
67,92
70,498
72,995
75,4
77,697
79,873
81,914
83,807
85,54
87,1
88,476
89,656
90,632
91,394
91,934
92,245
92,322
92,159
91,753
91,101
90,2
89,052
87,655
86,013
84,128
82,005
79,651
77,072
74,277
71,275
68,079
64,698
61,146
57,435
53,581
49,596
45,496
41,297
37,013
32,661
28,257
23,817
19,354
14,884
10,422
5,982
1,581
-2,769
-7,06
-11,271
-15,388
-19,394
-23,273
-27,021
-30,638
-34,107
-37,414
-40,57
-43,588
-46,473
-49,241
-51,875
-54,342
-56,658
-58,855
-60,853
-62,556
-64,026
-65,259
-66,242
-67,189
-67,541
-66,76
-65,632
-64,398
-64,5
-67,659
-71,984
-76,217
-78,481
-76,194
-71,655
-66,811
-63,001
-62,43
-63,534
-64,728
-65,665
-65,383
-64,451
-63,6
-62,7
-61,849
-61,003
-60,02
-59,003
-58,032
-57,085
-56,16
-55,27
-54,415
-53,592
-52,799
-52,025
-51,254
-50,493
-49,751
-49,025
-48,316
-47,625
-46,95
-46,293
-45,656
-45,038
-44,437
-43,854
-43,288
-42,737
-42,203
-41,684
-41,179
-40,688
-40,211
-39,748
-39,297
-38,858
-38,433
-38,019
-37,619
-37,232
-36,859
-36,5
-36,157
-35,829
-35,519
-35,225
-34,95
-34,694
-34,457
-34,239
-34,041
-33,863
-33,704
-33,566
-33,446
-33,345
-33,263
-33,198
-33,151
-33,119
-33,103
-33,102
-33,113
-33,138
-33,174
-33,221
-33,277
-33,342
-33,414
-33,493
-33,577
-33,664
-33,753
-33,843
-33,933
-34,021
-34,106
-34,188
-34,266
-34,339
-34,408
-34,472
-34,532
-34,588
-34,642
-34,694
-34,747
-34,801
-34,859
-34,923
-34,995
-35,078
-35,173
-35,284
-35,412
-35,56
-35,73
-35,924
-36,144
-36,392
-36,669
-36,977
-37,316
-37,689
-38,097
-38,538
-39,015
-39,526
-40,072
-40,65
-41,26
-41,9
-42,567
-43,258
-43,97
-44,699
-45,441
-46,19
-46,941
-47,688
-48,425
-49,145
-49,84
-50,505
-51,131
-51,71
-52,235
-52,7
-53,096
-53,417
-53,656
-53,806
-53,862
-53,818
-53,668
-53,408
-53,033
-52,539
-51,924
-51,185
-50,321
-49,331
-48,216
-46,975
-45,611
-44,127
-42,526
-40,813
-38,992
-37,071
-35,056
-32,957
-30,782
-28,542
-26,249
-23,916
-21,556
-19,182
-16,809
-14,451
-12,122
-9,836
-7,607
-5,446
-3,369
-1,386
0,487
2,239
3,856
5,328
6,644
7,791
8,759
9,537
10,122
10,509
10,694
10,67
10,426
9,958
9,265
8,352
7,224
5,889
4,354
2,64
0,778
-1,195
-3,243
-5,337
-7,455
-9,575
-11,666
-13,689
-15,603
-17,374
-18,992
-20,45
-21,741
-22,856
-23,801
-24,606
-25,343
-26,092
-26,92
-27,874
-28,985
-30,278
-31,801
-33,617
-35,786
-38,353
-41,328
-44,665
-48,337
-52,338
-56,594
-60,958
-65,17
-68,819
-71,527
-73,104
-73,41
-72,337
-69,883
-65,973
-60,695
-54,566
-48,155
-41,832
-35,737
-29,585
-22,894
-15,515
-7,014
3,582
17,341
35,561
58,431
85,115
115,474
149,027
186,208
226,961
267,079
302,476
328,458
340,724
340,763
329,637
308,403
280,001
244,201
201,811
155,41
106,576
58,476
14,807
-22,034
-50,308
-69,306
-79,364
-81,112
-75,574
-64,475
-50,275
-35,61
-22,425
-11,886
-4,718
-1,409
-2,003
-5,998
-12,157
-18,76
-24,65
-29,308
-32,365
-33,569
-32,862
-30,367
-26,666
-22,735
-19,191
-16,285
-14,179
-12,917
-12,516
-12,995
-14,171
-15,684
-17,29
-18,849
-20,261
-21,498
-22,511
-23,236
-23,659
-23,805
-23,689
-23,329
-22,732
-21,893
-20,821
-19,537
-18,06
-16,413
-14,623
-12,715
-10,721
-8,672
-6,592
-4,496
-2,398
-0,306
1,776
3,848
5,914
7,984
10,064
12,158
14,27
16,408
18,576
20,782
23,03
25,326
27,673
30,074
32,53
35,043
37,612
40,236
42,91
45,632
48,398
51,205
54,048
56,925
59,829
62,758
65,705
68,665
71,632
74,598
77,554
80,493
83,405
86,28
89,108
91,879
94,581
97,205
99,74
102,174
104,497
106,697
108,763
110,686
112,454
114,058
115,489
116,738
117,797
118,659
119,318
119,769
120,004
120,017
119,803
119,36
118,689
117,786
116,647
115,275
113,681
111,878
109,878
107,688
105,298
102,71
99,952
97,019
93,883
90,528
86,932
83,102
79,099
74,951
70,622
66,174
61,808
57,578
53,445
49,447
45,404
41,684
39,444
38,481
37,745
35,544
28,637
17,161
4,411
-6,355
-10,511
-7,651
-2,151
2,602
2,979
-1,729
-8,245
-14,529
-19,218
-21,86
-23,786
-25,617
-27,303
-28,896
-30,196
-31,152
-31,948
-32,643
-33,213
-33,666
-34,018
-34,269
-34,417
-34,453
-34,356
-34,123
-33,777
-33,331
-32,792
-32,17
-31,472
-30,707
-29,889
-29,026
-28,125
-27,194
-26,239
-25,27
-24,293
-23,316
-22,346
-21,389
-20,452
-19,54
-18,657
-17,809
-16,999
-16,23
-15,505
-14,827
-14,197
-13,617
-13,086
-12,606
-12,176
-11,796
-11,464
-11,178
-10,937
-10,739
-10,581
-10,461
-10,376
-10,324
-10,301
-10,305
-10,333
-10,381
-10,448
-10,529
-10,622
-10,724
-10,83
-10,939
-11,047
-11,152
-11,251
-11,342
-11,423
-11,493
-11,551
-11,594
-11,623
-11,637
-11,636
-11,621
-11,591
-11,549
-11,495
-11,431
-11,36
-11,283
-11,201
-11,119
-11,037
-10,959
-10,886
-10,821
-10,766
-10,723
-10,695
-10,685
-10,693
-10,723
-10,777
-10,855
-10,959
-11,092
-11,252
-11,442
-11,661
-11,91
-12,187
-12,493
-12,826
-13,184
-13,565
-13,966
-14,383
-14,814
-15,254
-15,698
-16,142
-16,58
-17,008
-17,418
-17,807
-18,167
-18,493
-18,778
-19,017
-19,202
-19,329
-19,391
-19,383
-19,299
-19,134
-18,884
-18,545
-18,113
-17,584
-16,957
-16,229
-15,397
-14,462
-13,424
-12,283
-11,04
-9,698
-8,261
-6,733
-5,119
-3,426
-1,659
0,173
2,063
4,002
5,978
7,982
10,003
12,029
14,047
16,042
18,001
19,91
21,755
23,524
25,202
26,774
28,231
29,56
30,752
31,796
32,681
33,397
33,935
34,288
34,449
34,41
34,164
33,705
33,032
32,148
31,054
29,752
28,242
26,521
24,594
22,473
20,167
17,688
15,049
12,269
9,377
6,415
3,422
0,431
-2,528
-5,433
-8,255
-10,957
-13,51
-15,888
-18,075
-20,063
-21,838
-23,387
-24,714
-25,838
-26,798
-27,656
-28,471
-29,286
-30,154
-31,108
-32,168
-33,371
-34,74
-36,285
-38,022
-39,943
-41,999
-44,17
-46,443
-48,722
-50,876
-52,646
-53,631
-53,557
-52,3
-49,767
-45,873
-40,588
-33,941
-26,317
-18,571
-11,298
-4,667
1,432
7,248
12,948
18,803
25,756
35,596
49,933
68,959
91,565
116,636
143,788
174,568
211,031
251,641
291,017
320,4
330,868
318,4
285,782
241,09
191,903
143,694
97,467
50,787
5,655
-34,82
-66,512
-84,443
-90,265
-87,295
-79,035
-70,079
-61,223
-52,928
-46,218
-40,929
-37,948
-37,718
-39,474
-42,623
-46,164
-48,968
-50,623
-51,026
-50,25
-48,633
-46,517
-44,192
-42,015
-40,349
-39,373
-39,137
-39,602
-40,63
-42,096
-43,908
-45,957
-48,137
-50,361
-52,536
-54,569
-56,407
-58,012
-59,35
-60,411
-61,176
-61,634
-61,792
-61,676
-61,312
-60,727
-59,94
-58,965
-57,823
-56,543
-55,16
-53,71
-52,218
-50,699
-49,162
-47,615
-46,061
-44,501
-42,927
-41,325
-39,683
-37,992
-36,247
-34,444
-32,578
-30,638
-28,618
-26,51
-24,31
-22,016
-19,624
-17,132
-14,542
-11,854
-9,072
-6,203
-3,249
-0,216
2,892
6,07
9,312
12,611
15,961
19,354
22,782
26,235
29,702
33,171
36,631
40,07
43,475
46,832
50,129
53,35
56,483
59,513
62,426
65,209
67,847
70,328
72,638
74,767
76,701
78,432
79,948
81,242
82,306
83,132
83,715
84,051
84,135
83,965
83,539
82,858
81,922
80,734
79,296
77,614
75,692
73,539
71,162
68,57
65,774
62,784
59,613
56,274
52,78
49,145
45,385
41,515
37,551
33,508
29,403
25,252
21,071
16,875
12,681
8,502
4,354
0,251
-3,793
-7,766
-11,655
-15,449
-19,136
-22,706
-26,152
-29,463
-32,632
-35,654
-38,522
-41,231
-43,778
-46,16
-48,374
-50,42
-52,297
-54,006
-55,548
-56,926
-58,143
-59,203
-60,11
-60,869
-61,486
-61,967
-62,318
-62,546
-62,658
-62,66
-62,56
-62,366
-62,085
-61,724
-61,291
-60,793
-60,237
-59,631
-58,981
-58,293
-57,576
-56,833
-56,073
-55,299
-54,517
-53,734
-52,952
-52,177
-51,413
-50,664
-49,933
-49,222
-48,535
-47,875
-47,242
-46,638
-46,067
-45,527
-45,021
-44,55
-44,114
-43,713
-43,349
-43,02
-42,727
-42,47
-42,249
-42,062
-41,911
-41,793
-41,708
-41,657
-41,637
-41,649
-41,692
-41,764
-41,864
-41,993
-42,149
-42,33
-42,536
-42,766
-43,019
-43,293
-43,588
-43,902
-44,235
-44,585
-44,951
-45,331
-45,726
-46,132
-46,55
-46,977
-47,413
-47,856
-48,305
-48,759
-49,217
-49,678
-50,141
-50,605
-51,069
-51,532
-51,993
-52,452
-52,908
-53,359
-53,806
-54,247
-54,682
-55,11
-55,53
-55,942
-56,346
-56,74
-57,123
-57,496
-57,856
-58,205
-58,54
-58,86
-59,166
-59,456
-59,729
-59,984
-60,219
-60,434
-60,626
-60,795
-60,937
-61,051
-61,135
-61,186
-61,202
-61,181
-61,118
-61,013
-60,861
-60,66
-60,405
-60,095
-59,726
-59,296
-58,801
-58,238
-57,606
-56,902
-56,123
-55,269
-54,338
-53,328
-52,238
-51,069
-49,82
-48,492
-47,086
-45,603
-44,045
-42,415
-40,718
-38,956
-37,135
-35,259
-33,335
-31,37
-29,371
-27,345
-25,303
-23,253
-21,207
-19,176
-17,17
-15,203
-13,285
-11,428
-9,644
-7,945
-6,339
-4,839
-3,452
-2,191
-1,066
-0,088
0,735
1,395
1,883
2,19
2,31
2,237
1,969
1,505
0,84
-0,031
-1,113
-2,408
-3,911
-5,614
-7,507
-9,578
-11,811
-14,18
-16,652
-19,195
-21,779
-24,379
-26,974
-29,534
-32,024
-34,403
-36,635
-38,698
-40,58
-42,271
-43,761
-45,054
-46,166
-47,142
-48,038
-48,901
-49,764
-50,651
-51,599
-52,653
-53,867
-55,288
-56,939
-58,822
-60,922
-63,213
-65,663
-68,21
-70,757
-73,173
-75,317
-77,053
-78,268
-78,842
-78,62
-77,441
-75,121
-71,439
-66,288
-59,647
-51,554
-42,161
-31,642
-20,137
-7,942
4,53
17,137
29,937
43,168
57,354
72,879
89,99
109,095
130,47
153,243
175,635
195,83
212,085
224,918
236,234
246,224
253,099
251,612
235,082
199,458
145,788
81,763
18,458
-32,977
-66,005
-81,432
-83,391
-77,004
-65,538
-49,641
-31,196
-14,753
-5,871
-7,901
-19,446
-34,399
-45,995
-50,792
-49,347
-45,187
-41,47
-39,289
-38,183
-36,884
-34,903
-32,562
-30,314
-28,642
-27,643
-27,182
-27,203
-27,622
-28,342
-29,283
-30,354
-31,482
-32,631
-33,754
-34,776
-35,629
-36,269
-36,663
-36,798
-36,665
-36,252
-35,563
-34,618
-33,445
-32,069
-30,512
-28,792
-26,927
-24,947
-22,881
-20,766
-18,627
-16,483
-14,345
-12,223
-10,12
-8,04
-5,977
-3,92
-1,859
0,215
2,307
4,42
6,562
8,739
10,96
13,234
15,567
17,963
20,426
22,962
25,573
28,261
31,025
33,863
36,773
39,756
42,809
45,931
49,118
52,368
55,676
59,036
62,444
65,89
69,368
72,866
76,375
79,883
83,38
86,853
90,288
93,672
96,993
100,236
103,387
106,432
109,356
112,146
114,788
117,269
119,576
121,696
123,618
125,331
126,825
128,091
129,121
129,907
130,443
130,723
130,745
130,505
130,002
129,236
128,209
126,923
125,382
123,593
121,563
119,299
116,812
114,112
111,211
108,122
104,858
101,434
97,865
94,166
90,354
86,446
82,459
78,409
74,314
70,191
66,057
61,928
57,822
53,753
49,738
45,791
41,927
38,159
34,499
30,961
27,555
24,291
21,178
18,223
15,434
12,815
10,371
8,105
6,019
4,114
2,391
0,847
-0,518
-1,707
-2,725
-3,575
-4,263
-4,794
-5,176
-5,416
-5,521
-5,498
-5,357
-5,105
-4,752
-4,307
-3,778
-3,174
-2,506
-1,781
-1,009
-0,201
0,635
1,494
2,369
3,253
4,141
5,022
5,892
6,753
7,595
8,405
9,169
9,874
10,517
11,113
11,663
12,145
12,574
12,988
13,416
13,893
14,42
14,945
15,459
16,016
16,556
16,884
16,971
16,874
16,567
16,278
15,567
13,231
9,63
5,835
3,761
6,866
14,677
23,796
30,747
30,604
23,418
13,776
5,2
1,607
3,393
7,111
10,739
12,787
12,933
12,596
12,353
12,175
12,102
11,916
11,583
11,293
11,097
10,963
10,9
10,914
10,998
11,145
11,333
11,528
11,719
11,917
12,124
12,338
12,554
12,762
12,968
13,178
13,393
13,614
13,832
14,031
14,216
14,393
14,538
14,628
14,647
14,571
14,413
14,205
13,924
13,534
13,121
12,79
12,475
12,179
11,92
11,47
11,444
12,441
13,607
14,684
14,101
9,979
4,408
-1,217
-4,821
-3,557
0,066
3,924
6,561
5,569
2,677
-0,362
-3,152
-4,62
-5,378
-6,212
-6,962
-7,723
-8,431
-8,916
-9,274
-9,584
-9,814
-9,952
-10,002
-9,955
-9,791
-9,501
-9,069
-8,478
-7,736
-6,857
-5,847
-4,725
-3,517
-2,248
-0,94
0,398
1,767
3,166
4,593
6,042
7,509
9,002
10,531
12,101
13,711
15,362
17,066
18,85
20,762
22,84
25,096
27,525
30,102
32,804
35,599
38,448
41,295
44,062
46,679
49,091
51,259
53,141
54,683
55,808
56,422
56,453
55,858
54,616
52,723
50,174
46,986
43,204
38,903
34,183
29,132
23,82
18,312
12,679
7,006
1,396
-4,046
-9,238
-14,109
-18,595
-22,64
-26,185
-29,205
-31,712
-33,743
-35,348
-36,577
-37,476
-38,107
-38,556
-38,907
-39,239
-39,63
-40,143
-40,852
-41,834
-43,157
-44,872
-46,99
-49,472
-52,272
-55,337
-58,593
-61,949
-65,265
-68,341
-71,006
-73,108
-74,479
-74,943
-74,272
-72,173
-68,45
-63,043
-55,971
-47,366
-37,392
-26,16
-13,89
-0,962
12,386
26,198
40,677
56,233
73,466
92,784
114,363
138,577
164,727
190,676
215,384
237,963
257,835
276,538
291,947
299,182
294,863
274,498
238,293
190,883
135,539
77,808
22,585
-26,172
-62,745
-84,392
-90,64
-83,447
-68,322
-51,003
-37,51
-32,375
-36,431
-47,32
-59,853
-69,383
-73,792
-73,751
-72,21
-71,099
-70,84
-70,978
-70,282
-68,401
-65,811
-62,91
-60,173
-57,913
-56,129
-54,856
-54,14
-53,884
-53,997
-54,414
-55,048
-55,844
-56,771
-57,769
-58,77
-59,705
-60,496
-61,084
-61,437
-61,53
-61,353
-60,901
-60,181
-59,214
-58,035
-56,672
-55,154
-53,5
-51,728
-49,864
-47,938
-45,986
-44,043
-42,134
-40,273
-38,472
-36,736
-35,065
-33,455
-31,895
-30,368
-28,862
-27,365
-25,87
-24,369
-22,852
-21,308
-19,725
-18,093
-16,403
-14,647
-12,815
-10,903
-8,905
-6,818
-4,641
-2,374
-0,018
2,428
4,962
7,582
10,285
13,068
15,925
18,85
21,835
24,874
27,954
31,064
34,193
37,327
40,453
43,555
46,619
49,629
52,57
55,425
58,179
60,816
63,319
65,673
67,862
69,872
71,687
73,295
74,683
75,84
76,754
77,416
77,82
77,957
77,822
77,413
76,726
75,76
74,517
72,998
71,207
69,15
66,834
64,267
61,46
58,423
55,169
51,712
48,067
44,249
40,273
36,157
31,919
27,576
23,147
18,651
14,107
9,534
4,95
0,374
-4,175
-8,68
-13,124
-17,491
-21,764
-25,928
-29,97
-33,876
-37,635
-41,235
-44,666
-47,921
-50,992
-53,873
-56,559
-59,048
-61,337
-63,425
-65,311
-66,999
-68,488
-69,783
-70,888
-71,808
-72,548
-73,116
-73,518
-73,762
-73,858
-73,813
-73,638
-73,341
-72,933
-72,423
-71,822
-71,139
-70,384
-69,569
-68,702
-67,794
-66,853
-65,889
-64,911
-63,926
-62,942
-61,965
-61,003
-60,06
-59,143
-58,256
-57,403
-56,587
-55,813
-55,082
-54,396
-53,758
-53,168
-52,626
-52,132
-51,687
-51,29
-50,94
-50,636
-50,376
-50,159
-49,982
-49,845
-49,743
-49,675
-49,638
-49,629
-49,644
-49,681
-49,737
-49,809
-49,894
-49,989
-50,093
-50,203
-50,316
-50,431
-50,546
-50,66
-50,771
-50,878
-50,98
-51,076
-51,167
-51,252
-51,33
-51,402
-51,469
-51,53
-51,585
-51,636
-51,683
-51,726
-51,766
-51,804
-51,842
-51,881
-51,921
-51,965
-52,013
-52,067
-52,129
-52,199
-52,278
-52,367
-52,466
-52,577
-52,699
-52,832
-52,976
-53,131
-53,296
-53,469
-53,649
-53,835
-54,024
-54,214
-54,403
-54,588
-54,765
-54,933
-55,088
-55,227
-55,345
-55,44
-55,507
-55,543
-55,542
-55,5
-55,413
-55,276
-55,085
-54,835
-54,521
-54,141
-53,689
-53,163
-52,56
-51,876
-51,109
-50,257
-49,318
-48,291
-47,177
-45,975
-44,686
-43,311
-41,852
-40,312
-38,695
-37,003
-35,241
-33,414
-31,527
-29,586
-27,599
-25,571
-23,513
-21,433
-19,341
-17,249
-15,167
-13,106
-11,078
-9,093
-7,164
-5,299
-3,51
-1,806
-0,196
1,308
2,695
3,956
5,082
6,062
6,891
7,559
8,06
8,387
8,54
8,515
8,311
7,921
7,338
6,559
5,588
4,431
3,097
1,6
-0,048
-1,823
-3,693
-5,629
-7,602
-9,59
-11,579
-13,548
-15,47
-17,313
-19,038
-20,624
-22,061
-23,343
-24,464
-25,425
-26,235
-26,928
-27,565
-28,191
-28,84
-29,53
-30,27
-31,088
-32,023
-33,112
-34,386
-35,847
-37,477
-39,25
-41,141
-43,108
-45,084
-46,962
-48,603
-49,887
-50,711
-50,984
-50,61
-49,445
-47,345
-44,153
-39,708
-33,929
-26,819
-18,44
-8,963
1,405
12,473
23,96
35,503
46,912
58,245
69,788
82,09
95,691
110,892
127,943
147,116
168,256
190,649
213,161
233,976
250,933
262,255
266,247
261,87
249,514
229,878
203,447
169,632
127,394
77,863
25,557
-20,951
-53,15
-67,489
-65,863
-55,498
-44,236
-35,968
-31,259
-28,227
-25,044
-21,622
-18,862
-17,887
-18,898
-21,314
-24,247
-26,623
-27,963
-28,228
-27,47
-25,961
-23,999
-21,807
-19,678
-17,929
-16,703
-16,049
-15,943
-16,267
-16,916
-17,816
-18,879
-20,018
-21,166
-22,249
-23,188
-23,944
-24,489
-24,798
-24,865
-24,679
-24,232
-23,539
-22,627
-21,522
-20,249
-18,829
-17,273
-15,602
-13,841
-12,02
-10,171
-8,318
-6,473
-4,648
-2,848
-1,078
0,663
2,381
4,09
5,802
7,525
9,266
11,029
12,82
14,649
16,525
18,454
20,443
22,497
24,619
26,815
29,085
31,432
33,853
36,345
38,908
41,538
44,233
46,99
49,806
52,674
55,59
58,548
61,54
64,558
67,593
70,634
73,67
76,69
79,681
82,631
85,526
88,352
91,096
93,743
96,28
98,691
100,963
103,082
105,035
106,81
108,393
109,774
110,943
111,889
112,603
113,079
113,31
113,288
113,011
112,474
111,675
110,613
109,288
107,702
105,857
103,757
101,408
98,815
95,987
92,932
89,66
86,181
82,51
78,657
74,638
70,466
66,158
61,729
57,196
52,576
47,885
43,14
38,358
33,555
28,749
23,955
19,188
14,466
9,801
5,209
0,702
-3,705
-8,002
-12,177
-16,219
-20,119
-23,868
-27,458
-30,883
-34,136
-37,212
-40,107
-42,818
-45,342
-47,678
-49,828
-51,79
-53,569
-55,165
-56,584
-57,828
-58,904
-59,817
-60,573
-61,178
-61,639
-61,964
-62,16
-62,235
-62,198
-62,055
-61,815
-61,486
-61,076
-60,593
-60,044
-59,438
-58,781
-58,082
-57,346
-56,581
-55,794
-54,991
-54,178
-53,362
-52,548
-51,739
-50,942
-50,159
-49,395
-48,651
-47,931
-47,237
-46,571
-45,933
-45,326
-44,749
-44,204
-43,69
-43,208
-42,755
-42,334
-41,941
-41,577
-41,241
-40,931
-40,648
-40,389
-40,154
-39,941
-39,751
-39,58
-39,429
-39,295
-39,178
-39,075
-38,987
-38,91
-38,846
-38,792
-38,749
-38,715
-38,689
-38,673
-38,665
-38,665
-38,673
-38,689
-38,713
-38,746
-38,788
-38,839
-38,9
-38,972
-39,055
-39,148
-39,253
-39,369
-39,496
-39,633
-39,779
-39,935
-40,099
-40,27
-40,446
-40,626
-40,808
-40,99
-41,17
-41,345
-41,511
-41,667
-41,807
-41,929
-42,029
-42,103
-42,146
-42,154
-42,123
-42,047
-41,923
-41,744
-41,505
-41,201
-40,827
-40,378
-39,849
-39,235
-38,533
-37,738
-36,847
-35,858
-34,768
-33,576
-32,28
-30,879
-29,374
-27,766
-26,056
-24,247
-22,343
-20,347
-18,265
-16,104
-13,869
-11,569
-9,212
-6,806
-4,36
-1,885
0,608
3,108
5,601
8,075
10,513
12,901
15,225
17,47
19,621
21,664
23,587
25,377
27,023
28,514
29,838
30,985
31,944
32,709
33,272
33,627
33,772
33,702
33,419
32,921
32,211
31,291
30,161
28,821
27,272
25,519
23,574
21,447
19,154
16,712
14,139
11,46
8,705
5,902
3,081
0,275
-2,487
-5,164
-7,719
-10,118
-12,325
-14,313
-16,073
-17,591
-18,863
-19,891
-20,664
-21,189
-21,497
-21,619
-21,608
-21,528
-21,423
-21,362
-21,431
-21,643
-21,957
-22,279
-22,425
-22,252
-21,691
-20,668
-19,125
-17,171
-15,021
-12,977
-11,442
-10,625
-10,46
-10,76
-11,281
-11,538
-10,886
-8,655
-4,042
3,463
13,881
27,066
42,887
60,993
80,924
102,426
125,049
148,304
172,156
195,898
217,867
237,414
254,086
267,957
280,815
291,682
297,358
293,894
275,923
242,326
196,104
143,609
94,324
54,774
28,802
15,803
10,469
8,886
7,605
5,383
4,168
4,356
5,699
7,602
8,319
7,202
4,65
1,178
-2,389
-5,253
-7,054
-7,629
-6,9
-5,022
-2,315
0,904
4,287
7,465
10,239
12,517
14,235
15,419
16,124
16,389
16,297
15,947
15,394
14,682
13,857
12,962
12,073
11,282
10,651
10,221
10,015
10,041
10,31
10,826
11,575
12,533
13,677
14,985
16,444
18,042
19,76
21,572
23,446
25,35
27,262
29,167
31,058
32,931
34,788
36,631
38,47
40,322
42,197
44,103
46,048
48,035
50,072
52,167
54,326
56,558
58,867
61,258
63,734
66,297
68,948
71,685
74,505
77,405
80,378
83,422
86,53
89,697
92,918
96,184
99,487
102,82
106,171
109,531
112,887
116,227
119,537
122,803
126,013
129,151
132,204
135,157
137,997
140,709
143,28
145,696
147,945
150,014
151,892
153,568
155,032
156,273
157,284
158,058
158,586
158,866
158,891
158,659
158,168
157,418
156,409
155,142
153,621
151,849
149,833
147,579
145,095
142,391
139,476
136,363
133,062
129,588
125,953
122,171
118,256
114,224
110,09
105,868
101,575
97,225
92,835
88,419
83,994
79,574
75,174
70,809
66,492
62,236
58,055
53,962
49,966
46,081
42,315
38,678
35,179
31,826
28,624
25,58
22,697
19,98
17,432
15,053
12,846
10,809
8,942
7,244
5,712
4,343
3,135
2,082
1,18
0,424
-0,192
-0,674
-1,029
-1,265
-1,388
-1,406
-1,327
-1,159
-0,912
-0,592
-0,21
0,227
0,71
1,23
1,778
2,347
2,929
3,516
4,101
4,677
5,239
5,781
6,296
6,782
7,232
7,644
8,013
8,336
8,611
8,836
9,008
9,127
9,191
9,2
9,153
9,052
8,896
8,686
8,425
8,113
7,754
7,348
6,9
6,411
5,885
5,326
4,737
4,121
3,482
2,823
2,147
1,458
0,757
0,047
-0,669
-1,39
-2,113
-2,838
-3,563
-4,288
-5,01
-5,731
-6,45
-7,167
-7,883
-8,597
-9,311
-10,027
-10,745
-11,467
-12,194
-12,929
-13,673
-14,429
-15,198
-15,983
-16,786
-17,611
-18,458
-19,33
-20,229
-21,156
-22,113
-23,1
-24,118
-25,166
-26,244
-27,351
-28,485
-29,643
-30,825
-32,025
-33,242
-34,471
-35,707
-36,945
-38,181
-39,408
-40,619
-41,808
-42,966
-44,088
-45,167
-46,195
-47,167
-48,073
-48,903
-49,654
-50,32
-50,889
-51,349
-51,69
-51,899
-51,978
-51,932
-51,749
-51,418
-50,956
-50,378
-49,697
-48,93
-48,066
-47,074
-45,976
-44,808
-43,493
-41,942
-40,22
-38,332
-36,269
-34,255
-31,735
-28,175
-24,374
-20,588
-18,277
-19,189
-21,425
-23,724
-24,202
-20,264
-14,237
-8,095
-3,197
-1,777
-2,266
-3,074
-3,857
-3,65
-3,036
-2,756
-2,679
-2,906
-3,396
-4,011
-4,859
-6,026
-7,487
-9,233
-11,266
-13,571
-16,13
-18,914
-21,877
-24,97
-28,167
-31,445
-34,782
-38,153
-41,524
-44,857
-48,108
-51,243
-54,238
-57,076
-59,745
-62,241
-64,572
-66,767
-68,881
-70,97
-73,074
-75,222
-77,431
-79,722
-82,133
-84,704
-87,472
-90,457
-93,654
-97,04
-100,588
-104,246
-107,935
-111,538
-114,901
-117,87
-120,311
-122,093
-123,098
-123,177
-122,157
-119,886
-116,197
-110,919
-103,984
-95,416
-85,323
-73,962
-61,603
-48,452
-34,817
-21,071
-7,333
6,487
20,729
36,046
52,883
71,307
91,39
113,141
136,021
159,087
180,84
199,102
212,025
218,325
216,779
206,522
187,562
160,524
126,889
89,193
49,854
11,06
-24,775
-55,655
-80,421
-98,44
-109,89
-115,869
-117,505
-116,073
-113,29
-110,572
-108,823
-108,642
-110,106
-112,845
-116,506
-120,572
-124,256
-127,005
-128,525
-128,698
-127,703
-125,849
-123,417
-120,752
-118,245
-116,144
-114,58
-113,611
-113,183
-113,221
-113,666
-114,427
-115,403
-116,532
-117,773
-119,078
-120,404
-121,688
-122,841
-123,807
-124,549
-125,039
-125,268
-125,231
-124,931
-124,388
-123,631
-122,687
-121,58
-120,326
-118,937
-117,432
-115,839
-114,186
-112,507
-110,825
-109,151
-107,494
-105,859
-104,242
-102,64
-101,039
-99,424
-97,779
-96,096
-94,365
-92,58
-90,733
-88,814
-86,813
-84,722
-82,534
-80,242
-77,842
-75,33
-72,706
-69,969
-67,122
-64,169
-61,116
-57,966
-54,725
-51,399
-47,995
-44,522
-40,988
-37,405
-33,782
-30,134
-26,474
-22,816
-19,177
-15,573
-12,019
-8,533
-5,132
-1,831
1,351
4,398
7,295
10,024
12,572
14,924
17,065
18,984
20,669
22,109
23,294
24,217
24,871
25,251
25,352
25,172
24,71
23,966
22,943
21,644
20,073
18,237
16,143
13,802
11,223
8,419
5,402
2,187
-1,21
-4,776
-8,492
-12,341
-16,308
-20,373
-24,519
-28,728
-32,984
-37,267
-41,561
-45,848
-50,113
-54,34
-58,512
-62,616
-66,638
-70,565
-74,385
-78,087
-81,659
-85,094
-88,383
-91,519
-94,495
-97,308
-99,952
-102,426
-104,727
-106,854
-108,809
-110,593
-112,207
-113,654
-114,938
-116,064
-117,036
-117,86
-118,54
-119,084
-119,498
-119,788
-119,962
-120,026
-119,987
-119,852
-119,629
-119,325
-118,946
-118,499
-117,991
-117,429
-116,818
-116,165
-115,475
-114,754
-114,006
-113,236
-112,449
-111,647
-110,836
-110,017
-109,193
-108,366
-107,538
-106,711
-105,886
-105,063
-104,244
-103,43
-102,62
-101,815
-101,016
-100,222
-99,433
-98,651
-97,874
-97,102
-96,337
-95,578
-94,825
-94,079
-93,339
-92,606
-91,88
-91,162
-90,452
-89,751
-89,06
-88,379
-87,71
-87,054
-86,411
-85,784
-85,174
-84,583
-84,012
-83,462
-82,937
-82,438
-81,965
-81,521
-81,107
-80,724
-80,374
-80,056
-79,772
-79,522
-79,306
-79,124
-78,974
-78,857
-78,771
-78,715
-78,687
-78,684
-78,705
-78,747
-78,806
-78,88
-78,964
-79,056
-79,15
-79,244
-79,331
-79,406
-79,466
-79,504
-79,514
-79,491
-79,429
-79,322
-79,165
-78,954
-78,682
-78,344
-77,937
-77,456
-76,898
-76,258
-75,535
-74,725
-73,827
-72,839
-71,761
-70,592
-69,334
-67,987
-66,553
-65,036
-63,437
-61,76
-60,011
-58,192
-56,311
-54,373
-52,385
-50,356
-48,293
-46,206
-44,105
-42,001
-39,904
-37,826
-35,777
-33,766
-31,806
-29,904
-28,07
-26,311
-24,636
-23,053
-21,57
-20,196
-18,936
-17,798
-16,789
-15,915
-15,179
-14,583
-14,125
-13,805
-13,624
-13,585
-13,692
-13,944
-14,334
-14,857
-15,505
-16,265
-17,121
-18,043
-18,995
-19,943
-20,86
-21,728
-22,529
-23,24
-23,829
-24,266
-24,525
-24,593
-24,465
-24,126
-23,566
-22,792
-21,826
-20,723
-19,562
-18,394
-17,258
-16,174
-15,16
-14,257
-13,527
-13,019
-12,761
-12,741
-12,914
-13,275
-13,845
-14,575
-15,325
-15,82
-15,74
-14,905
-13,292
-10,897
-7,618
-3,326
2,021
8,184
14,738
21,424
28,267
35,534
43,411
51,919
61,044
71,082
82,703
96,558
113,039
132,079
153,382
176,703
201,849
228,205
254,451
278,922
299,764
315,322
324,434
326,03
319
302,923
278,361
246,56
209,591
169,97
129,909
91,754
58,112
30,808
10,796
-1,582
-6,959
-6,628
-1,839
5,751
14,072
21,682
27,685
31,525
33,27
33,296
31,942
29,871
28,007
26,879
26,712
27,538
29,103
31,148
33,495
35,849
37,848
39,291
40,097
40,278
39,973
39,293
38,312
37,126
35,837
34,528
33,285
32,19
31,277
30,573
30,102
29,871
29,892
30,171
30,692
31,426
32,344
33,418
34,625
35,948
37,366
38,851
40,373
41,901
43,414
44,9
46,352
47,767
49,143
50,482
51,794
53,097
54,403
55,727
57,077
58,462
59,891
61,378
62,933
64,568
66,291
68,109
70,028
72,054
74,193
76,446
78,813
81,292
83,884
86,585
89,393
92,306
95,318
98,424
101,617
104,889
108,23
111,631
115,079
118,56
122,06
125,564
129,057
132,521
135,94
139,295
142,57
145,746
148,805
151,73
154,504
157,109
159,529
161,75
163,756
165,533
167,069
168,353
169,375
170,125
170,596
170,782
170,678
170,282
169,592
168,607
167,328
165,759
163,903
161,767
159,358
156,685
153,758
150,588
147,19
143,576
139,762
135,763
131,596
127,277
122,823
118,253
113,584
108,834
104,021
99,162
94,276
89,38
84,491
79,622
74,787
69,999
65,272
60,62
56,055
51,583
47,218
42,98
38,885
34,949
31,181
27,573
24,121
20,843
17,724
14,721
11,814
8,98
6,206
3,533
0,993
-1,453
-3,739
-5,66
-7,203
-8,457
-9,383
-10,16
-10,487
-9,308
-6,857
-4,191
-3,125
-6,752
-15,365
-26,248
-35,264
-37,46
-31,17
-19,017
-6,416
1,573
2,419
-3,289
-11,145
-17,703
-21,188
-20,649
-18,331
-15,875
-13,701
-12,627
-12,019
-11,3
-10,67
-10,004
-9,361
-8,907
-8,536
-8,161
-7,796
-7,416
-7,007
-6,587
-6,169
-5,758
-5,371
-5,027
-4,722
-4,455
-4,232
-4,053
-3,919
-3,832
-3,792
-3,798
-3,851
-3,955
-4,107
-4,309
-4,56
-4,858
-5,202
-5,59
-6,02
-6,49
-6,996
-7,536
-8,106
-8,702
-9,32
-9,955
-10,604
-11,259
-11,917
-12,571
-13,215
-13,843
-14,448
-15,025
-15,566
-16,064
-16,515
-16,91
-17,243
-17,508
-17,698
-17,807
-17,829
-17,759
-17,591
-17,321
-16,945
-16,458
-15,86
-15,146
-14,316
-13,368
-12,302
-11,118
-9,817
-8,4
-6,871
-5,232
-3,488
-1,642
0,3
2,331
4,445
6,635
8,892
11,208
13,573
15,977
18,409
20,857
23,307
25,746
28,16
30,536
32,86
35,117
37,296
39,382
41,364
43,23
44,967
46,566
48,013
49,297
50,408
51,337
52,076
52,616
52,952
53,075
52,984
52,673
52,142
51,384
50,395
49,171
47,716
46,037
44,146
42,056
39,785
37,357
34,802
32,152
29,439
26,692
23,934
21,191
18,492
15,869
13,363
10,998
8,784
6,731
4,843
3,117
1,544
0,086
-1,326
-2,741
-4,197
-5,752
-7,453
-9,347
-11,503
-13,934
-16,613
-19,547
-22,744
-26,091
-29,483
-32,942
-36,351
-39,602
-42,836
-45,354
-46,466
-46,75
-46,055
-45,482
-46,646
-47,433
-46,279
-41,414
-30,494
-16,135
-1,274
12,507
23,901
33,93
43,146
50,562
54,271
54,808
56,311
63,715
82,342
112,66
149,533
187,124
220,417
248,09
272,282
295,288
316,063
330,478
334,097
322,169
294,432
253,898
202,575
145,571
88,346
36,488
-2,188
-24,279
-31,889
-30,654
-27,712
-27,131
-28,444
-28,763
-26,467
-21,844
-16,207
-11,358
-7,68
-4,746
-2,598
-0,993
0,585
2,389
4,508
6,706
8,23
8,734
8,569
7,944
6,857
5,292
3,185
0,728
-1,504
-3,287
-4,88
-6,449
-8,107
-9,892
-11,647
-13,334
-15,122
-17,02
-18,865
-20,544
-21,926
-22,948
-23,679
-24,154
-24,355
-24,304
-24,032
-23,567
-22,963
-22,252
-21,44
-20,549
-19,59
-18,571
-17,508
-16,405
-15,263
-14,084
-12,858
-11,572
-10,215
-8,78
-7,262
-5,66
-3,967
-2,177
-0,285
1,714
3,819
6,034
8,36
10,8
13,355
16,022
18,796
21,672
24,643
27,705
30,852
34,077
37,374
40,734
44,15
47,613
51,115
54,644
58,19
61,74
65,282
68,805
72,295
75,74
79,127
82,443
85,676
88,812
91,838
94,743
97,513
100,135
102,599
104,892
107,003
108,922
110,64
112,146
113,434
114,496
115,326
115,918
116,27
116,378
116,24
115,856
115,227
114,354
113,24
111,889
110,305
108,496
106,468
104,229
101,787
99,154
96,339
93,353
90,209
86,918
83,494
79,95
76,301
72,56
68,742
64,862
60,934
56,975
53
49,022
45,057
41,12
37,223
33,382
29,608
25,913
22,31
18,808
15,419
12,151
9,014
6,014
3,158
0,453
-2,097
-4,487
-6,713
-8,774
-10,667
-12,392
-13,949
-15,337
-16,559
-17,617
-18,513
-19,252
-19,836
-20,273
-20,566
-20,722
-20,748
-20,651
-20,439
-20,12
-19,701
-19,191
-18,598
-17,931
-17,198
-16,407
-15,566
-14,684
-13,769
-12,828
-11,87
-10,901
-9,929
-8,961
-8,004
-7,063
-6,144
-5,254
-4,397
-3,579
-2,804
-2,078
-1,403
-0,784
-0,224
0,274
0,709
1,078
1,379
1,612
1,776
1,871
1,896
1,851
1,738
1,556
1,306
0,989
0,607
0,161
-0,347
-0,915
-1,543
-2,226
-2,964
-3,754
-4,594
-5,481
-6,412
-7,385
-8,396
-9,442
-10,521
-11,628
-12,761
-13,916
-15,089
-16,278
-17,479
-18,689
-19,905
-21,124
-22,343
-23,559
-24,77
-25,974
-27,167
-28,347
-29,512
-30,661
-31,791
-32,902
-33,991
-35,057
-36,1
-37,119
-38,112
-39,08
-40,023
-40,941
-41,833
-42,702
-43,547
-44,37
-45,173
-45,957
-46,723
-47,475
-48,212
-48,939
-49,655
-50,365
-51,069
-51,769
-52,468
-53,167
-53,867
-54,571
-55,278
-55,991
-56,709
-57,432
-58,161
-58,895
-59,633
-60,374
-61,115
-61,856
-62,593
-63,324
-64,045
-64,752
-65,441
-66,108
-66,747
-67,353
-67,922
-68,446
-68,921
-69,339
-69,696
-69,984
-70,197
-70,33
-70,375
-70,326
-70,178
-69,926
-69,564
-69,089
-68,496
-67,782
-66,945
-65,984
-64,896
-63,683
-62,345
-60,882
-59,299
-57,598
-55,784
-53,861
-51,837
-49,718
-47,514
-45,232
-42,882
-40,476
-38,022
-35,535
-33,027
-30,509
-27,998
-25,505
-23,047
-20,64
-18,3
-16,042
-13,882
-11,836
-9,917
-8,142
-6,523
-5,073
-3,801
-2,713
-1,819
-1,126
-0,643
-0,377
-0,328
-0,5
-0,905
-1,562
-2,483
-3,668
-5,1
-6,763
-8,663
-10,796
-13,121
-15,568
-18,072
-20,595
-23,15
-25,753
-28,351
-30,922
-33,595
-36,489
-39,606
-42,883
-46,109
-49,563
-54,272
-60,724
-68,227
-74,179
-74,715
-67,986
-55,918
-44,111
-39,021
-43,766
-56,213
-70,082
-79,39
-81,476
-77,67
-72,115
-67,98
-66,347
-66,798
-67,91
-68,948
-69,963
-71,046
-72,242
-73,369
-73,993
-73,725
-72,377
-69,847
-66,069
-61,005
-54,631
-47,025
-38,557
-29,882
-21,473
-13,496
-5,843
1,719
9,29
17,106
25,811
36,565
50,586
68,498
90,243
115,404
143,461
173,513
204,242
233,471
258,251
276,205
285,582
285,637
276,922
259,995
235,004
200,97
156,841
104,402
48,762
-1,257
-37,054
-56,056
-61,109
-58,676
-54,009
-47,235
-35,75
-18,067
1,228
14,282
14,251
-2,056
-27,363
-50,942
-65,044
-64,142
-52,385
-38,195
-26,592
-21,878
-23,21
-26,214
-29,103
-30,66
-30,857
-31,295
-32,393
-33,95
-35,937
-38,025
-40,067
-42,177
-44,346
-46,49
-48,561
-50,511
-52,27
-53,787
-55,021
-55,924
-56,474
-56,69
-56,59
-56,194
-55,528
-54,613
-53,466
-52,113
-50,582
-48,905
-47,119
-45,254
-43,328
-41,358
-39,355
-37,327
-35,279
-33,21
-31,112
-28,977
-26,802
-24,585
-22,327
-20,027
-17,68
-15,282
-12,83
-10,322
-7,758
-5,136
-2,458
0,275
3,061
5,896
8,773
11,689
14,638
17,618
20,624
23,651
26,694
29,747
32,805
35,862
38,91
41,942
44,949
47,924
50,857
53,741
56,566
59,323
62,002
64,595
67,091
69,482
71,757
73,908
75,925
77,799
79,523
81,088
82,486
83,711
84,755
85,613
86,28
86,75
87,019
87,084
86,943
86,594
86,037
85,272
84,299
83,12
81,739
80,158
78,383
76,418
74,269
71,944
69,449
66,793
63,984
61,033
57,95
54,744
51,428
48,011
44,507
40,927
37,283
33,588
29,853
26,092
22,316
18,538
14,771
11,025
7,313
3,646
0,034
-3,512
-6,983
-10,369
-13,662
-16,854
-19,938
-22,906
-25,751
-28,47
-31,056
-33,505
-35,814
-37,98
-40,001
-41,876
-43,604
-45,185
-46,619
-47,908
-49,053
-50,056
-50,921
-51,65
-52,248
-52,719
-53,068
-53,299
-53,42
-53,434
-53,348
-53,169
-52,901
-52,551
-52,124
-51,628
-51,069
-50,455
-49,791
-49,083
-48,337
-47,559
-46,759
-45,937
-45,093
-44,229
-43,343
-42,446
-41,553
-40,661
-39,763
-38,884
-38,045
-37,259
-36,549
-35,902
-35,288
-34,727
-34,253
-33,783
-33,222
-32,629
-32,001
-31,318
-30,793
-29,859
-27,966
-25,901
-23,904
-23,422
-26,188
-30,284
-34,433
-36,733
-34,57
-30,256
-25,75
-22,398
-22,416
-24,219
-26,198
-27,995
-28,631
-28,674
-28,856
-29,036
-29,309
-29,625
-29,837
-30,04
-30,314
-30,631
-30,987
-31,391
-31,839
-32,325
-32,847
-33,389
-33,934
-34,487
-35,055
-35,633
-36,221
-36,818
-37,421
-38,029
-38,645
-39,264
-39,885
-40,507
-41,127
-41,745
-42,359
-42,969
-43,574
-44,173
-44,766
-45,35
-45,927
-46,494
-47,051
-47,598
-48,133
-48,657
-49,168
-49,667
-50,154
-50,628
-51,089
-51,537
-51,973
-52,396
-52,807
-53,204
-53,589
-53,961
-54,321
-54,668
-55,002
-55,324
-55,633
-55,928
-56,21
-56,477
-56,728
-56,962
-57,178
-57,374
-57,547
-57,698
-57,823
-57,921
-57,991
-58,03
-58,037
-58,009
-57,945
-57,842
-57,698
-57,511
-57,278
-56,996
-56,664
-56,279
-55,84
-55,345
-54,791
-54,178
-53,506
-52,772
-51,976
-51,119
-50,2
-49,221
-48,182
-47,086
-45,935
-44,732
-43,48
-42,184
-40,848
-39,477
-38,075
-36,649
-35,204
-33,745
-32,28
-30,816
-29,359
-27,917
-26,499
-25,112
-23,768
-22,477
-21,248
-20,09
-19,013
-18,028
-17,143
-16,366
-15,703
-15,16
-14,742
-14,455
-14,304
-14,297
-14,434
-14,722
-15,162
-15,756
-16,505
-17,406
-18,453
-19,642
-20,971
-22,435
-24,038
-25,781
-27,657
-29,661
-31,785
-34,011
-36,323
-38,693
-41,085
-43,469
-45,816
-48,1
-50,302
-52,399
-54,362
-56,169
-57,795
-59,214
-60,41
-61,368
-62,08
-62,57
-62,872
-63,026
-63,093
-63,108
-63,112
-63,162
-63,299
-63,577
-64,05
-64,73
-65,649
-66,869
-68,386
-70,149
-72,026
-73,728
-74,992
-75,62
-75,362
-74,056
-71,691
-68,336
-64,346
-60,318
-56,729
-54,016
-52,537
-52,263
-52,855
-53,715
-53,738
-51,621
-46,157
-36,065
-20,34
1,399
28,958
61,498
97,513
135,171
172,278
206,262
234,655
255,271
266,536
267,606
258,085
238,257
209,361
173,297
132,397
89,444
46,943
7,217
-27,246
-54,78
-74,757
-87,117
-92,538
-92,374
-87,94
-80,888
-73,386
-66,912
-62,28
-59,985
-59,892
-61,565
-64,633
-68,386
-71,815
-74,354
-75,737
-75,904
-75,143
-73,73
-71,883
-69,978
-68,314
-67,002
-66,219
-65,973
-66,119
-66,779
-67,298
-67,009
-66,638
-66,364
-67,613
-72,116
-77,829
-83,378
-86,757
-85,237
-81,192
-76,639
-72,96
-72,457
-73,519
-74,511
-75,088
-74,259
-72,623
-70,955
-69,139
-67,3
-65,424
-63,383
-61,291
-59,243
-57,221
-55,224
-53,264
-51,334
-49,413
-47,489
-45,542
-43,547
-41,509
-39,429
-37,297
-35,104
-32,845
-30,511
-28,101
-25,612
-23,039
-20,378
-17,629
-14,793
-11,872
-8,869
-5,786
-2,623
0,614
3,923
7,296
10,73
14,22
17,76
21,345
24,964
28,606
32,26
35,922
39,578
43,205
46,782
50,285
53,7
57,031
60,268
63,378
66,36
69,238
72,029
74,753
77,405
79,923
82,277
84,509
86,563
88,239
89,477
90,332
90,773
90,986
90,642
88,546
84,858
80,712
77,823
79,566
86,002
93,685
99,278
98,022
89,265
77,599
66,598
60,015
58,801
59,568
60,147
59,174
56,12
52,377
48,657
44,911
41,217
37,388
33,372
29,375
25,477
21,66
17,944
14,353
10,894
7,572
4,382
1,303
-1,665
-4,499
-7,184
-9,717
-12,089
-14,297
-16,336
-18,2
-19,886
-21,393
-22,724
-23,88
-24,864
-25,678
-26,325
-26,812
-27,143
-27,324
-27,364
-27,268
-27,045
-26,704
-26,253
-25,701
-25,057
-24,33
-23,53
-22,666
-21,745
-20,777
-19,771
-18,734
-17,674
-16,598
-15,515
-14,431
-13,352
-12,284
-11,233
-10,204
-9,201
-8,229
-7,29
-6,389
-5,527
-4,707
-3,931
-3,199
-2,513
-1,873
-1,279
-0,73
-0,226
0,235
0,654
1,033
1,373
1,675
1,943
2,177
2,38
2,554
2,7
2,821
2,918
2,993
3,049
3,087
3,109
3,117
3,112
3,096
3,072
3,039
3,001
2,959
2,914
2,867
2,82
2,774
2,729
2,688
2,649
2,615
2,585
2,559
2,539
2,524
2,515
2,512
2,514
2,523
2,538
2,559
2,586
2,62
2,661
2,708
2,762
2,823
2,89
2,963
3,041
3,123
3,209
3,298
3,388
3,478
3,566
3,651
3,731
3,804
3,87
3,925
3,969
4
4,015
4,015
3,995
3,957
3,897
3,815
3,709
3,579
3,424
3,241
3,032
2,794
2,527
2,232
1,907
1,554
1,172
0,763
0,328
-0,13
-0,61
-1,108
-1,623
-2,149
-2,684
-3,222
-3,761
-4,294
-4,817
-5,324
-5,811
-6,27
-6,697
-7,086
-7,43
-7,725
-7,963
-8,139
-8,248
-8,284
-8,243
-8,118
-7,906
-7,601
-7,2
-6,698
-6,093
-5,383
-4,564
-3,637
-2,6
-1,456
-0,204
1,153
2,611
4,168
5,82
7,56
9,381
11,276
13,236
15,254
17,323
19,428
21,556
23,702
25,858
28,014
30,164
32,289
34,363
36,382
38,342
40,209
41,952
43,548
44,963
46,202
47,288
48,19
48,863
49,389
49,865
50,221
50,454
50,579
50,365
50,43
51,374
52,332
53,034
51,896
47,028
40,533
33,82
28,985
28,904
31,074
33,385
34,403
31,731
27,133
22,389
17,917
14,823
12,52
10,249
8,188
6,248
4,492
3,091
1,93
0,907
0,008
-0,831
-1,678
-2,575
-3,557
-4,65
-5,88
-7,282
-8,908
-10,801
-12,97
-15,403
-18,073
-20,951
-23,972
-27,045
-30,038
-32,788
-35,15
-36,989
-38,168
-38,534
-37,912
-36,133
-33,021
-28,4
-22,174
-14,345
-5,005
5,626
17,284
29,753
42,74
55,867
68,977
82,135
95,645
110,095
125,92
143,224
162,077
182,502
204,102
226,037
246,764
264,224
276,685
282,735
281,816
273,524
256,87
232,19
199,401
159,043
115,449
71,948
32,766
2,922
-18,53
-32,895
-41,603
-47,89
-51,117
-50,572
-47,32
-42,061
-36,642
-32,592
-30,09
-29,05
-29,186
-30,152
-31,555
-32,744
-33,248
-32,903
-31,77
-30,124
-28,201
-26,138
-24,165
-22,579
-21,578
-21,246
-21,564
-22,398
-23,629
-25,185
-26,968
-28,874
-30,805
-32,653
-34,325
-35,778
-36,977
-37,895
-38,519
-38,832
-38,825
-38,518
-37,936
-37,105
-36,053
-34,802
-33,37
-31,785
-30,078
-28,282
-26,436
-24,564
-22,682
-20,802
-18,929
-17,07
-15,227
-13,392
-11,553
-9,702
-7,83
-5,935
-4,013
-2,059
-0,066
1,974
4,066
6,216
8,426
10,7
13,042
15,452
17,929
20,474
23,082
25,752
28,481
31,268
34,11
37,005
39,948
42,935
45,961
49,021
52,107
55,211
58,326
61,441
64,548
67,637
70,696
73,716
76,685
79,592
82,425
85,173
87,824
90,367
92,789
95,08
97,229
99,225
101,059
102,72
104,2
105,489
106,582
107,47
108,147
108,609
108,852
108,871
108,667
108,237
107,583
106,705
105,608
104,294
102,77
101,041
99,116
97,001
94,708
92,245
89,624
86,857
83,957
80,936
77,807
74,585
71,284
67,918
64,5
61,047
57,571
54,088
50,611
47,155
43,732
40,357
37,042
33,799
30,639
27,573
24,611
21,762
19,033
16,432
13,965
11,636
9,451
7,412
5,521
3,781
2,19
0,748
-0,546
-1,695
-2,702
-3,571
-4,305
-4,91
-5,391
-5,754
-6,004
-6,148
-6,193
-6,145
-6,013
-5,803
-5,523
-5,181
-4,785
-4,341
-3,858
-3,343
-2,803
-2,244
-1,673
-1,095
-0,518
0,055
0,617
1,166
1,697
2,206
2,691
3,149
3,579
3,978
4,346
4,68
4,98
5,245
5,475
5,669
5,826
5,947
6,032
6,08
6,092
6,07
6,013
5,922
5,799
5,645
5,461
5,248
5,008
4,742
4,451
4,137
3,801
3,444
3,067
2,671
2,258
1,827
1,38
0,916
0,437
-0,058
-0,567
-1,09
-1,627
-2,176
-2,736
-3,306
-3,885
-4,471
-5,064
-5,661
-6,262
-6,864
-7,468
-8,07
-8,671
-9,269
-9,863
-10,453
-11,036
-11,614
-12,184
-12,746
-13,299
-13,843
-14,378
-14,901
-15,411
-15,909
-16,393
-16,861
-17,313
-17,748
-18,164
-18,562
-18,941
-19,3
-19,64
-19,96
-20,261
-20,543
-20,807
-21,054
-21,284
-21,497
-21,696
-21,88
-22,05
-22,208
-22,353
-22,487
-22,609
-22,721
-22,823
-22,915
-22,999
-23,073
-23,14
-23,201
-23,256
-23,307
-23,355
-23,401
-23,447
-23,495
-23,545
-23,599
-23,658
-23,723
-23,794
-23,873
-23,959
-24,053
-24,155
-24,265
-24,382
-24,506
-24,636
-24,772
-24,912
-25,055
-25,202
-25,35
-25,498
-25,646
-25,792
-25,934
-26,072
-26,202
-26,324
-26,433
-26,529
-26,606
-26,662
-26,694
-26,697
-26,667
-26,602
-26,496
-26,347
-26,151
-25,905
-25,604
-25,247
-24,83
-24,352
-23,809
-23,202
-22,529
-21,789
-20,983
-20,11
-19,171
-18,168
-17,102
-15,975
-14,789
-13,548
-12,255
-10,914
-9,529
-8,108
-6,656
-5,181
-3,69
-2,195
-0,705
0,771
2,219
3,63
4,991
6,291
7,521
8,669
9,726
10,68
11,523
12,242
12,829
13,273
13,565
13,695
13,656
13,44
13,041
12,46
11,693
10,736
9,584
8,23
6,67
4,906
2,942
0,783
-1,562
-4,076
-6,735
-9,502
-12,343
-15,23
-18,137
-21,049
-23,941
-26,781
-29,535
-32,166
-34,643
-36,954
-39,085
-41,023
-42,762
-44,313
-45,719
-47,056
-48,389
-49,761
-51,19
-52,684
-54,275
-56,028
-58,013
-60,28
-62,843
-65,669
-68,739
-72,074
-75,645
-79,314
-82,823
-85,846
-88,154
-89,713
-90,534
-90,518
-89,576
-87,678
-84,947
-81,672
-77,947
-73,566
-68,225
-61,715
-53,861
-44,557
-33,593
-20,601
-5,461
11,755
30,89
51,65
73,82
97,278
121,708
146,631
170,982
192,829
210,492
223,15
231,978
239,449
246,538
251,617
248,49
229,988
192,776
137,892
74,593
15,096
-32,149
-61,536
-75,437
-80,955
-82,563
-84,29
-86,774
-87,443
-86,124
-83,249
-79,541
-76,933
-76,085
-76,612
-78,148
-79,925
-81,085
-81,22
-80,166
-77,874
-74,586
-70,684
-66,464
-62,27
-58,496
-55,355
-52,956
-51,359
-50,485
-50,233
-50,525
-51,244
-52,27
-53,53
-54,94
-56,421
-57,892
-59,255
-60,435
-61,385
-62,071
-62,475
-62,589
-62,41
-61,955
-61,257
-60,343
-59,242
-57,974
-56,556
-55,015
-53,382
-51,692
-49,981
-48,272
-46,58
-44,913
-43,275
-41,665
-40,078
-38,499
-36,911
-35,301
-33,658
-31,973
-30,239
-28,448
-26,587
-24,648
-22,621
-20,501
-18,281
-15,955
-13,522
-10,978
-8,323
-5,559
-2,688
0,287
3,363
6,538
9,809
13,17
16,617
20,144
23,743
27,406
31,126
34,89
38,689
42,51
46,341
50,169
53,982
57,765
61,504
65,185
68,795
72,318
75,742
79,051
82,232
85,274
88,161
90,883
93,428
95,784
97,941
99,89
101,622
103,129
104,405
105,444
106,242
106,795
107,1
107,157
106,966
106,526
105,841
104,915
103,751
102,356
100,736
98,9
96,855
94,613
92,183
89,577
86,806
83,883
80,82
77,632
74,331
70,931
67,448
63,894
60,284
56,633
52,955
49,263
45,571
41,892
38,239
34,624
31,059
27,555
24,124
20,774
17,517
14,36
11,311
8,378
5,566
2,883
0,331
-2,084
-4,361
-6,495
-8,487
-10,335
-12,039
-13,599
-15,018
-16,297
-17,439
-18,447
-19,324
-20,076
-20,707
-21,222
-21,626
-21,925
-22,124
-22,231
-22,251
-22,19
-22,056
-21,855
-21,594
-21,28
-20,918
-20,518
-20,083
-19,622
-19,14
-18,643
-18,137
-17,628
-17,121
-16,62
-16,131
-15,657
-15,204
-14,773
-14,37
-13,996
-13,654
-13,347
-13,076
-12,844
-12,652
-12,5
-12,391
-12,324
-12,3
-12,32
-12,384
-12,49
-12,639
-12,83
-13,062
-13,333
-13,642
-13,988
-14,369
-14,784
-15,23
-15,705
-16,209
-16,738
-17,291
-17,867
-18,462
-19,075
-19,705
-20,35
-21,009
-21,679
-22,361
-23,052
-23,752
-24,459
-25,172
-25,891
-26,614
-27,341
-28,07
-28,802
-29,536
-30,272
-31,01
-31,75
-32,493
-33,238
-33,987
-34,739
-35,497
-36,26
-37,03
-37,807
-38,592
-39,388
-40,194
-41,011
-41,842
-42,685
-43,541
-44,411
-45,296
-46,194
-47,106
-48,031
-48,97
-49,921
-50,883
-51,857
-52,84
-53,831
-54,829
-55,83
-56,834
-57,837
-58,836
-59,828
-60,809
-61,775
-62,723
-63,649
-64,548
-65,414
-66,244
-67,031
-67,771
-68,458
-69,086
-69,649
-70,143
-70,561
-70,899
-71,152
-71,315
-71,384
-71,355
-71,223
-70,987
-70,641
-70,185
-69,614
-68,928
-68,126
-67,208
-66,174
-65,025
-63,764
-62,392
-60,913
-59,332
-57,653
-55,882
-54,023
-52,084
-50,073
-47,999
-45,87
-43,696
-41,489
-39,261
-37,026
-34,797
-32,586
-30,408
-28,274
-26,198
-24,192
-22,267
-20,434
-18,703
-17,087
-15,596
-14,242
-13,036
-11,988
-11,106
-10,399
-9,872
-9,528
-9,371
-9,401
-9,622
-10,037
-10,653
-11,473
-12,497
-13,724
-15,146
-16,749
-18,513
-20,41
-22,405
-24,466
-26,563
-28,67
-30,761
-32,805
-34,773
-36,633
-38,358
-39,924
-41,31
-42,498
-43,476
-44,258
-44,885
-45,408
-45,892
-46,384
-46,911
-47,525
-48,287
-49,267
-50,536
-52,132
-54,037
-56,255
-58,817
-61,701
-64,848
-68,067
-71,001
-73,404
-75,167
-76,207
-76,489
-75,965
-74,504
-72,254
-69,685
-67,055
-64,424
-61,643
-58,241
-53,86
-48,388
-41,393
-32,083
-19,795
-3,953
15,594
38,371
63,899
91,821
121,442
151,563
180,572
206,597
227,988
243,35
251,5
251,384
242,023
223,949
198,614
166,905
130,737
91,025
48,383
7,161
-29,067
-56,9
-73,07
-79,963
-80,416
-77,076
-73,618
-70,234
-66,97
-64,533
-62,594
-61,925
-62,929
-64,96
-67,484
-69,602
-70,547
-70,154
-68,402
-65,424
-61,552
-57,131
-52,556
-48,268
-44,533
-41,458
-39,08
-37,352
-36,216
-35,625
-35,486
-35,691
-36,16
-36,835
-37,66
-38,579
-39,511
-40,356
-41,044
-41,526
-41,776
-41,783
-41,539
-41,045
-40,314
-39,368
-38,23
-36,919
-35,45
-33,835
-32,097
-30,261
-28,36
-26,428
-24,487
-22,551
-20,628
-18,718
-16,819
-14,925
-13,022
-11,095
-9,131
-7,121
-5,058
-2,937
-0,749
1,511
3,853
6,282
8,805
11,424
14,142
16,96
19,876
22,889
25,993
29,183
32,451
35,793
39,201
42,669
46,189
49,753
53,351
56,975
60,614
64,255
67,887
71,496
75,068
78,589
82,046
85,422
88,703
91,875
94,923
97,833
100,59
103,182
105,596
107,818
109,837
111,643
113,224
114,571
115,677
116,534
117,137
117,48
117,56
117,375
116,924
116,208
115,227
113,984
112,483
110,729
108,727
106,486
104,014
101,32
98,417
95,315
92,029
88,571
84,957
81,202
77,32
73,329
69,244
65,083
60,862
56,598
52,31
48,013
43,725
39,462
35,24
31,074
26,98
22,97
19,058
15,257
11,578
8,031
4,627
1,375
-1,717
-4,643
-7,395
-9,97
-12,363
-14,571
-16,593
-18,428
-20,076
-21,54
-22,821
-23,922
-24,849
-25,605
-26,196
-26,63
-26,913
-27,054
-27,061
-26,944
-26,712
-26,374
-25,941
-25,422
-24,826
-24,164
-23,446
-22,68
-21,876
-21,044
-20,192
-19,329
-18,464
-17,605
-16,758
-15,931
-15,13
-14,361
-13,629
-12,939
-12,295
-11,7
-11,157
-10,669
-10,236
-9,86
-9,541
-9,278
-9,069
-8,915
-8,811
-8,755
-8,746
-8,778
-8,85
-8,958
-9,099
-9,268
-9,462
-9,678
-9,911
-10,158
-10,415
-10,678
-10,944
-11,21
-11,473
-11,73
-11,979
-12,217
-12,442
-12,653
-12,848
-13,027
-13,188
-13,332
-13,458
-13,568
-13,662
-13,743
-13,811
-13,87
-13,922
-13,969
-14,014
-14,059
-14,109
-14,164
-14,227
-14,302
-14,39
-14,493
-14,615
-14,756
-14,918
-15,102
-15,31
-15,541
-15,795
-16,073
-16,374
-16,696
-17,038
-17,399
-17,776
-18,167
-18,568
-18,976
-19,388
-19,798
-20,2
-20,591
-20,963
-21,311
-21,627
-21,906
-22,139
-22,321
-22,444
-22,503
-22,49
-22,4
-22,225
-21,962
-21,604
-21,147
-20,588
-19,921
-19,146
-18,26
-17,261
-16,15
-14,927
-13,593
-12,149
-10,598
-8,944
-7,191
-5,344
-3,408
-1,391
0,7
2,857
5,068
7,325
9,614
11,925
14,244
16,555
18,844
21,099
23,304
25,444
27,507
29,477
31,344
33,094
34,718
36,201
37,533
38,702
39,7
40,518
41,148
41,581
41,812
41,836
41,652
41,26
40,656
39,838
38,8
37,542
36,07
34,393
32,521
30,47
28,26
25,918
23,483
20,991
18,475
15,964
13,482
11,062
8,736
6,541
4,511
2,667
1,02
-0,416
-1,637
-2,653
-3,485
-4,183
-4,81
-5,42
-6,06
-6,774
-7,601
-8,59
-9,786
-11,22
-12,906
-14,838
-16,993
-19,343
-21,844
-24,418
-26,962
-29,349
-31,424
-33,042
-34,063
-34,336
-33,7
-32,004
-29,077
-24,734
-18,9
-11,608
-2,935
6,95
17,853
29,628
41,99
54,496
66,972
79,531
92,39
105,913
120,462
136,173
153,178
171,881
191,478
209,869
225,987
238,914
248,856
258,228
265,375
265,56
254,868
228,495
187,678
139,92
91,516
48,886
15,162
-11,162
-30,92
-44,843
-53,457
-56,455
-54,497
-49,086
-42,081
-35,298
-29,859
-26,33
-24,835
-25,05
-26,593
-28,886
-31,072
-32,572
-33,105
-32,581
-31,188
-29,201
-26,836
-24,397
-22,258
-20,642
-19,659
-19,331
-19,553
-20,222
-21,261
-22,564
-24,035
-25,599
-27,177
-28,696
-30,097
-31,331
-32,362
-33,169
-33,733
-34,043
-34,1
-33,918
-33,526
-32,948
-32,209
-31,327
-30,315
-29,195
-27,992
-26,734
-25,453
-24,168
-22,892
-21,633
-20,397
-19,186
-17,997
-16,818
-15,635
-14,435
-13,208
-11,946
-10,645
-9,295
-7,885
-6,408
-4,854
-3,216
-1,489
0,333
2,255
4,279
6,406
8,637
10,968
13,398
15,923
18,542
21,251
24,046
26,922
29,871
32,888
35,965
39,092
42,258
45,454
48,665
51,881
55,086
58,269
61,413
64,506
67,532
70,476
73,323
76,059
78,67
81,14
83,457
85,607
87,577
89,355
90,93
92,292
93,432
94,341
95,012
95,44
95,62
95,549
95,224
94,645
93,812
92,728
91,395
89,818
88,004
85,96
83,695
81,219
78,543
75,68
72,643
69,445
66,101
62,626
59,036
55,347
51,576
47,738
43,851
39,931
35,995
32,058
28,137
24,248
20,404
16,621
12,912
9,291
5,769
2,358
-0,932
-4,09
-7,109
-9,98
-12,696
-15,253
-17,646
-19,872
-21,928
-23,814
-25,529
-27,074
-28,451
-29,662
-30,712
-31,604
-32,343
-32,934
-33,383
-33,698
-33,884
-33,948
-33,899
-33,743
-33,488
-33,142
-32,712
-32,206
-31,632
-30,997
-30,308
-29,574
-28,8
-27,995
-27,163
-26,313
-25,448
-24,575
-23,699
-22,825
-21,955
-21,094
-20,245
-19,411
-18,594
-17,796
-17,017
-16,26
-15,525
-14,812
-14,122
-13,454
-12,808
-12,184
-11,581
-10,999
-10,437
-9,895
-9,371
-8,865
-8,377
-7,904
-7,447
-7,004
-6,574
-6,156
-5,75
-5,354
-4,968
-4,591
-4,222
-3,862
-3,509
-3,163
-2,825
-2,494
-2,172
-1,858
-1,554
-1,261
-0,979
-0,711
-0,458
-0,222
-0,003
0,196
0,373
0,528
0,658
0,761
0,836
0,882
0,896
0,876
0,822
0,73
0,601
0,431
0,221
-0,032
-0,329
-0,67
-1,057
-1,49
-1,97
-2,496
-3,07
-3,69
-4,356
-5,066
-5,818
-6,612
-7,443
-8,309
-9,208
-10,134
-11,086
-12,059
-13,048
-14,049
-15,057
-16,066
-17,071
-18,065
-19,044
-20
-20,927
-21,819
-22,669
-23,473
-24,222
-24,912
-25,536
-26,089
-26,565
-26,959
-27,266
-27,481
-27,6
-27,622
-27,542
-27,359
-27,073
-26,682
-26,187
-25,589
-24,89
-24,092
-23,199
-22,215
-21,146
-19,996
-18,773
-17,485
-16,142
-14,753
-13,329
-11,883
-10,425
-8,967
-7,521
-6,099
-4,714
-3,375
-2,095
-0,885
0,242
1,275
2,201
3,009
3,688
4,23
4,624
4,861
4,934
4,839
4,573
4,13
3,503
2,684
1,667
0,456
-0,944
-2,526
-4,279
-6,187
-8,229
-10,372
-12,585
-14,839
-17,11
-19,378
-21,618
-23,799
-25,884
-27,834
-29,623
-31,241
-32,678
-33,924
-34,982
-35,866
-36,611
-37,28
-37,924
-38,583
-39,289
-40,068
-40,96
-42,015
-43,276
-44,774
-46,518
-48,487
-50,653
-52,992
-55,448
-57,943
-60,369
-62,569
-64,396
-65,726
-66,416
-66,315
-65,268
-63,083
-59,56
-54,58
-48,112
-40,233
-31,14
-21,026
-10,052
1,569
13,547
25,685
38,018
50,845
64,747
80,262
97,615
116,873
138,07
160,893
184,512
207,628
228,363
244,681
255,036
258,154
252,899
238,878
216,531
186,932
152,041
114,378
76,208
39,847
7,736
-18,525
-38,153
-50,872
-57,248
-58,437
-55,57
-50,159
-44,111
-38,693
-34,637
-32,39
-31,867
-32,749
-34,785
-37,398
-39,722
-41,272
-41,848
-41,43
-40,297
-38,706
-36,82
-34,922
-33,361
-32,342
-31,97
-32,255
-33,074
-34,329
-35,952
-37,846
-39,924
-42,111
-44,322
-46,483
-48,531
-50,417
-52,104
-53,57
-54,793
-55,758
-56,461
-56,915
-57,145
-57,173
-57,021
-56,707
-56,242
-55,648
-54,951
-54,18
-53,364
-52,524
-51,669
-50,809
-49,947
-49,084
-48,218
-47,339
-46,431
-45,483
-44,488
-43,439
-42,332
-41,158
-39,909
-38,579
-37,16
-35,647
-34,037
-32,327
-30,514
-28,598
-26,582
-24,468
-22,259
-19,958
-17,57
-15,098
-12,55
-9,927
-7,234
-4,483
-1,686
1,144
3,992
6,852
9,722
12,583
15,413
18,22
21,005
23,767
26,513
29,211
31,818
34,338
36,788
39,073
41,084
42,867
44,405
45,67
46,861
47,406
46,748
45,663
44,385
44,347
47,268
51,239
54,987
56,618
53,533
48,033
42,071
36,989
34,999
34,53
33,99
33,032
30,69
27,543
24,329
20,923
17,431
13,819
9,953
5,944
1,886
-2,23
-6,396
-10,587
-14,788
-18,99
-23,18
-27,359
-31,527
-35,664
-39,75
-43,775
-47,725
-51,59
-55,359
-59,02
-62,563
-65,978
-69,26
-72,401
-75,395
-78,236
-80,919
-83,439
-85,794
-87,98
-89,996
-91,841
-93,514
-95,016
-96,348
-97,511
-98,508
-99,341
-100,015
-100,532
-100,898
-101,117
-101,194
-101,135
-100,945
-100,63
-100,196
-99,65
-98,998
-98,246
-97,399
-96,465
-95,45
-94,359
-93,198
-91,974
-90,693
-89,36
-87,982
-86,565
-85,115
-83,638
-82,14
-80,625
-79,101
-77,571
-76,042
-74,519
-73,005
-71,507
-70,027
-68,571
-67,143
-65,746
-64,383
-63,057
-61,772
-60,529
-59,332
-58,182
-57,081
-56,033
-55,038
-54,098
-53,215
-52,391
-51,627
-50,924
-50,282
-49,702
-49,184
-48,728
-48,333
-47,998
-47,723
-47,505
-47,342
-47,233
-47,174
-47,163
-47,195
-47,268
-47,377
-47,519
-47,688
-47,881
-48,093
-48,319
-48,555
-48,795
-49,036
-49,27
-49,494
-49,702
-49,888
-50,047
-50,174
-50,261
-50,304
-50,297
-50,233
-50,107
-49,914
-49,648
-49,303
-48,875
-48,36
-47,754
-47,052
-46,253
-45,353
-44,352
-43,248
-42,041
-40,73
-39,316
-37,802
-36,188
-34,478
-32,674
-30,78
-28,8
-26,739
-24,602
-22,396
-20,126
-17,799
-15,423
-13,007
-10,559
-8,088
-5,606
-3,123
-0,652
1,795
4,205
6,565
8,863
11,085
13,22
15,256
17,183
18,991
20,669
22,209
23,6
24,833
25,9
26,795
27,511
28,04
28,377
28,518
28,462
28,209
27,756
27,098
26,231
25,153
23,869
22,389
20,72
18,877
16,876
14,741
12,508
10,21
7,88
5,544
3,225
0,952
-1,238
-3,305
-5,215
-6,949
-8,499
-9,859
-11,022
-11,993
-12,796
-13,475
-14,093
-14,703
-15,345
-16,055
-16,872
-17,848
-19,04
-20,498
-22,242
-24,268
-26,549
-29,05
-31,736
-34,539
-37,359
-40,071
-42,523
-44,571
-46,088
-46,93
-46,926
-45,906
-43,675
-40,025
-34,86
-28,176
-20,069
-10,761
-0,46
10,679
22,424
34,447
46,57
58,844
71,591
85,407
100,76
117,777
136,471
156,876
178,714
201,196
223,006
242,271
257,055
265,934
267,737
261,324
246,17
222,602
191,698
155,402
116,122
76,154
37,958
4,104
-23,428
-44,043
-58,461
-67
-69,903
-66,742
-56,028
-40,124
-23,715
-10,925
-6,915
-11,884
-21,163
-31,063
-37,244
-38,126
-36,372
-33,705
-31,442
-30,219
-28,956
-27,236
-25,401
-23,78
-22,786
-22,55
-22,877
-23,574
-24,56
-25,76
-27,075
-28,418
-29,716
-30,9
-31,92
-32,752
-33,354
-33,699
-33,777
-33,574
-33,083
-32,316
-31,301
-30,063
-28,632
-27,027
-25,264
-23,362
-21,347
-19,25
-17,103
-14,931
-12,748
-10,565
-8,39
-6,231
-4,089
-1,961
0,168
2,306
4,46
6,636
8,835
11,062
13,326
15,631
17,985
20,391
22,852
25,371
27,951
30,594
33,297
36,061
38,882
41,756
44,682
47,656
50,676
53,738
56,837
59,968
63,126
66,303
69,494
72,688
75,878
79,052
82,202
85,315
88,381
91,388
94,324
97,176
99,933
102,582
105,11
107,505
109,756
111,851
113,78
115,53
117,093
118,459
119,619
120,566
121,291
121,79
122,056
122,086
121,875
121,423
120,727
119,788
118,606
117,184
115,525
113,634
111,516
109,179
106,631
103,881
100,939
97,816
94,524
91,076
87,485
83,765
79,93
75,995
71,975
67,884
63,739
59,555
55,346
51,129
46,918
42,727
38,571
34,464
30,419
26,449
22,566
18,781
15,105
11,548
8,119
4,828
1,68
-1,317
-4,158
-6,839
-9,356
-11,706
-13,888
-15,902
-17,747
-19,426
-20,939
-22,29
-23,483
-24,521
-25,41
-26,154
-26,761
-27,234
-27,583
-27,813
-27,933
-27,948
-27,868
-27,7
-27,452
-27,131
-26,746
-26,304
-25,813
-25,281
-24,715
-24,122
-23,511
-22,886
-22,256
-21,626
-21,002
-20,39
-19,793
-19,218
-18,668
-18,146
-17,657
-17,204
-16,788
-16,413
-16,081
-15,794
-15,552
-15,357
-15,21
-15,112
-15,063
-15,064
-15,115
-15,215
-15,365
-15,563
-15,811
-16,106
-16,448
-16,834
-17,265
-17,736
-18,248
-18,796
-19,379
-19,993
-20,635
-21,303
-21,993
-22,701
-23,423
-24,155
-24,892
-25,631
-26,367
-27,094
-27,808
-28,503
-29,174
-29,816
-30,422
-30,988
-31,506
-31,972
-32,378
-32,719
-32,987
-33,177
-33,282
-33,297
-33,217
-33,036
-32,75
-32,354
-31,846
-31,222
-30,479
-29,617
-28,633
-27,528
-26,302
-24,955
-23,49
-21,909
-20,215
-18,412
-16,505
-14,5
-12,404
-10,222
-7,964
-5,637
-3,251
-0,816
1,657
4,156
6,668
9,181
11,679
14,146
16,569
18,932
21,221
23,422
25,521
27,507
29,368
31,093
32,673
34,095
35,35
36,428
37,32
38,018
38,514
38,804
38,886
38,76
38,428
37,89
37,143
36,183
35,01
33,628
32,042
30,258
28,292
26,161
23,895
21,531
19,099
16,629
14,141
11,652
9,189
6,778
4,455
2,25
0,182
-1,738
-3,493
-5,067
-6,464
-7,71
-8,858
-9,978
-11,103
-12,232
-13,365
-14,519
-15,744
-17,115
-18,689
-20,459
-22,44
-24,708
-27,275
-30,103
-33,033
-35,708
-37,789
-39,117
-39,501
-38,665
-36,708
-33,908
-30,516
-27,268
-24,215
-20,421
-16,322
-12,876
-11,297
-14,17
-20,396
-25,554
-25,409
-14,43
8,25
38,238
71,506
103,229
131,708
159,117
186,277
213,097
238,105
258,271
271,698
277,695
275,71
265,446
246,912
220,733
188,348
151,666
112,915
74,096
37,273
4,86
-21,416
-40,769
-53,053
-58,869
-59,421
-55,907
-49,867
-43,338
-37,75
-33,91
-32,282
-32,715
-34,761
-38,034
-41,857
-45,299
-47,825
-49,19
-49,34
-48,577
-47,212
-45,462
-43,661
-42,151
-41,12
-40,668
-40,803
-41,409
-42,397
-43,698
-45,216
-46,875
-48,61
-50,355
-52,05
-53,625
-55,021
-56,196
-57,12
-57,776
-58,154
-58,247
-58,064
-57,63
-56,968
-56,1
-55,042
-53,803
-52,4
-50,857
-49,202
-47,469
-45,682
-43,856
-42,002
-40,13
-38,243
-36,342
-34,42
-32,465
-30,466
-28,418
-26,316
-24,158
-21,939
-19,653
-17,293
-14,855
-12,334
-9,727
-7,032
-4,247
-1,373
1,589
4,632
7,752
10,941
14,193
17,501
20,859
24,261
27,699
31,167
34,657
38,163
41,677
45,191
48,692
52,168
55,607
58,994
62,316
65,558
68,702
71,735
74,642
77,413
80,035
82,494
84,774
86,857
88,728
90,377
91,798
92,983
93,93
94,64
95,122
95,397
95,482
95,388
95,119
94,667
94,027
93,198
92,177
90,962
89,542
87,9
86,029
83,925
81,583
78,988
76,109
72,897
69,312
65,338
60,98
56,261
51,204
45,845
40,226
34,406
28,468
22,485
16,516
10,609
4,809
-0,824
-6,205
-11,234
-15,826
-19,927
-23,504
-26,543
-29,035
-30,988
-32,434
-33,433
-34,07
-34,416
-34,518
-34,411
-34,127
-33,712
-33,23
-32,755
-32,342
-32,031
-31,848
-31,815
-31,949
-32,252
-32,703
-33,259
-33,858
-34,458
-35,035
-35,574
-36,066
-36,495
-36,84
-37,08
-37,208
-37,22
-37,111
-36,878
-36,515
-36,026
-35,427
-34,747
-34,015
-33,256
-32,484
-31,706
-30,931
-30,165
-29,414
-28,679
-27,955
-27,242
-26,539
-25,848
-25,174
-24,516
-23,873
-23,24
-22,613
-21,99
-21,37
-20,753
-20,139
-19,529
-18,925
-18,331
-17,753
-17,193
-16,656
-16,144
-15,657
-15,199
-14,77
-14,372
-14,007
-13,674
-13,375
-13,113
-12,889
-12,704
-12,561
-12,461
-12,405
-12,394
-12,43
-12,513
-12,643
-12,821
-13,045
-13,316
-13,631
-13,991
-14,392
-14,833
-15,311
-15,822
-16,362
-16,928
-17,513
-18,114
-18,725
-19,341
-19,956
-20,565
-21,163
-21,745
-22,304
-22,836
-23,334
-23,794
-24,209
-24,573
-24,88
-25,124
-25,299
-25,401
-25,424
-25,363
-25,216
-24,978
-24,646
-24,218
-23,692
-23,066
-22,34
-21,515
-20,59
-19,569
-18,454
-17,249
-15,958
-14,588
-13,144
-11,634
-10,063
-8,439
-6,772
-5,069
-3,34
-1,595
0,156
1,901
3,627
5,321
6,971
8,563
10,084
11,521
12,861
14,09
15,2
16,179
17,02
17,711
18,244
18,611
18,805
18,821
18,651
18,291
17,734
16,981
16,031
14,89
13,56
12,046
10,35
8,475
6,427
4,215
1,85
-0,657
-3,291
-6,031
-8,848
-11,7
-14,552
-17,37
-20,125
-22,793
-25,346
-27,758
-30,006
-32,071
-33,934
-35,588
-37,02
-38,223
-39,206
-39,982
-40,586
-41,079
-41,509
-41,926
-42,373
-42,864
-43,421
-44,069
-44,817
-45,68
-46,664
-47,728
-48,849
-50,035
-51,209
-52,257
-52,996
-53,091
-52,247
-50,318
-47,182
-42,746
-37,083
-30,344
-22,839
-15,246
-8,24
-2,11
3,074
7,437
11,437
15,628
20,643
27,779
38,612
54,035
74,462
99,247
126,379
154,101
181,361
208,223
235,318
261,608
283,31
293,45
285,315
256,933
211,663
157,996
105,382
59,226
21,072
-10,071
-35,56
-55,446
-68,794
-74,896
-74,63
-69,61
-61,854
-53,786
-46,827
-41,67
-38,852
-38,293
-39,546
-42,236
-45,648
-48,799
-51,155
-52,458
-52,656
-52,05
-50,824
-49,055
-47,136
-45,448
-44,177
-43,668
-43,274
-42,227
-41,327
-40,775
-42,129
-47,275
-53,916
-60,493
-64,738
-63,598
-59,702
-55,283
-51,873
-52,021
-53,891
-55,638
-56,873
-56,494
-55,184
-53,814
-52,246
-50,611
-48,884
-46,929
-44,893
-42,891
-40,91
-38,956
-37,047
-35,186
-33,37
-31,59
-29,822
-28,033
-26,227
-24,403
-22,555
-20,676
-18,759
-16,791
-14,767
-12,683
-10,533
-8,312
-6,014
-3,638
-1,181
1,356
3,969
6,659
9,423
12,261
15,168
18,142
21,178
24,27
27,412
30,596
33,814
37,055
40,307
43,56
46,8
50,014
53,189
56,31
59,364
62,334
65,208
67,969
70,602
73,093
75,427
77,589
79,566
81,344
82,912
84,256
85,367
86,235
86,852
87,21
87,304
87,128
86,68
85,957
84,96
83,689
82,148
80,341
78,273
75,953
73,39
70,593
67,574
64,346
60,923
57,319
53,549
49,63
45,579
41,414
37,152
32,811
28,411
23,97
19,507
15,04
10,589
6,171
1,803
-2,5
-6,721
-10,844
-14,852
-18,735
-22,483
-26,078
-29,506
-32,754
-35,808
-38,667
-41,337
-43,805
-46,058
-48,117
-49,997
-51,71
-53,276
-54,684
-55,904
-56,959
-57,886
-58,607
-59,031
-59,224
-59,189
-58,914
-58,622
-57,749
-55,748
-53,425
-51,03
-50,037
-52,206
-55,609
-58,967
-60,368
-57,182
-51,753
-46,071
-41,5
-40,29
-40,847
-41,553
-42,054
-41,368
-40,073
-38,916
-37,76
-36,704
-35,703
-34,611
-33,529
-32,539
-31,617
-30,76
-29,98
-29,277
-28,645
-28,084
-27,579
-27,116
-26,7
-26,337
-26,026
-25,765
-25,554
-25,39
-25,275
-25,208
-25,188
-25,213
-25,282
-25,392
-25,544
-25,735
-25,966
-26,234
-26,538
-26,879
-27,254
-27,663
-28,104
-28,578
-29,083
-29,618
-30,181
-30,771
-31,385
-32,021
-32,678
-33,353
-34,043
-34,745
-35,458
-36,178
-36,902
-37,628
-38,351
-39,07
-39,779
-40,477
-41,158
-41,82
-42,46
-43,072
-43,654
-44,202
-44,712
-45,18
-45,603
-45,975
-46,293
-46,552
-46,748
-46,877
-46,935
-46,918
-46,822
-46,645
-46,383
-46,034
-45,596
-45,067
-44,446
-43,731
-42,921
-42,013
-41,013
-39,921
-38,739
-37,471
-36,116
-34,674
-33,153
-31,554
-29,866
-28,089
-26,214
-24,239
-22,189
-20,085
-17,921
-15,725
-13,546
-11,407
-9,35
-7,407
-5,525
-3,658
-1,843
-0,009
2,039
4,297
6,678
9,249
11,748
14,335
18,219
23,262
28,242
31,527
29,194
20,08
8,044
-2,348
-4,37
5,843
23,287
40,971
51,725
50,018
39,112
25,617
14,345
9,463
10,183
12,562
14,693
15,195
13,89
12,192
10,53
8,807
7,123
5,299
3,303
1,359
-0,44
-2,094
-3,557
-4,805
-5,871
-6,78
-7,575
-8,352
-9,176
-10,078
-11,091
-12,23
-13,51
-14,966
-16,638
-18,559
-20,758
-23,225
-25,938
-28,87
-31,966
-35,157
-38,334
-41,338
-44,018
-46,248
-47,907
-48,893
-49,091
-48,338
-46,479
-43,363
-38,819
-32,748
-25,142
-16,071
-5,714
5,695
17,925
30,694
43,656
56,58
69,484
82,659
96,537
111,522
127,961
145,976
165,577
186,775
208,378
228,56
246,241
259,716
268,756
274,372
274,679
267,58
250,432
219,689
176,225
125,074
73,415
29,399
-1,128
-18,163
-25,979
-28,947
-31,103
-33,421
-33,702
-31,28
-26,597
-20,709
-15,7
-12,563
-11,211
-11,373
-12,569
-14,213
-15,69
-16,622
-16,848
-16,379
-15,465
-14,317
-13,055
-11,909
-11,17
-11,001
-11,481
-12,587
-14,17
-16,113
-18,344
-20,752
-23,232
-25,683
-27,993
-30,09
-31,947
-33,541
-34,859
-35,891
-36,624
-37,059
-37,217
-37,124
-36,81
-36,299
-35,61
-34,767
-33,799
-32,738
-31,623
-30,477
-29,316
-28,151
-26,986
-25,826
-24,673
-23,524
-22,368
-21,195
-19,996
-18,765
-17,498
-16,191
-14,833
-13,417
-11,934
-10,378
-8,744
-7,03
-5,23
-3,342
-1,365
0,699
2,849
5,084
7,4
9,798
12,273
14,823
17,444
20,13
22,876
25,676
28,522
31,406
34,317
37,246
40,183
43,116
46,035
48,925
51,776
54,574
57,307
59,961
62,523
64,98
67,317
69,522
71,582
73,485
75,219
76,772
78,134
79,296
80,249
80,986
81,499
81,785
81,838
81,656
81,237
80,58
79,687
78,559
77,199
75,612
73,803
71,78
69,551
67,123
64,507
61,714
58,756
55,644
52,392
49,013
45,522
41,934
38,263
34,525
30,735
26,909
23,063
19,212
15,37
11,551
7,771
4,041
0,374
-3,218
-6,724
-10,134
-13,439
-16,631
-19,703
-22,647
-25,46
-28,135
-30,671
-33,063
-35,311
-37,412
-39,368
-41,178
-42,844
-44,368
-45,753
-47,002
-48,12
-49,11
-49,979
-50,731
-51,373
-51,911
-52,352
-52,701
-52,966
-53,153
-53,268
-53,318
-53,309
-53,246
-53,136
-52,983
-52,792
-52,567
-52,313
-52,033
-51,73
-51,407
-51,068
-50,713
-50,345
-49,966
-49,578
-49,18
-48,774
-48,361
-47,942
-47,515
-47,081
-46,641
-46,193
-45,737
-45,273
-44,801
-44,319
-43,828
-43,327
-42,814
-42,291
-41,757
-41,212
-40,656
-40,09
-39,516
-38,933
-38,344
-37,751
-37,154
-36,557
-35,962
-35,371
-34,785
-34,208
-33,641
-33,087
-32,55
-32,031
-31,533
-31,059
-30,61
-30,191
-29,802
-29,446
-29,124
-28,838
-28,589
-28,378
-28,207
-28,075
-27,984
-27,933
-27,923
-27,952
-28,019
-28,121
-28,256
-28,421
-28,613
-28,827
-29,057
-29,3
-29,55
-29,804
-30,056
-30,303
-30,538
-30,756
-30,954
-31,125
-31,264
-31,362
-31,411
-31,404
-31,333
-31,193
-30,978
-30,684
-30,305
-29,837
-29,28
-28,63
-27,887
-27,043
-26,087
-25,017
-23,837
-22,553
-21,18
-19,728
-18,205
-16,627
-15,014
-13,377
-11,726
-10,059
-8,36
-6,626
-4,863
-3,084
-1,315
0,431
2,154
3,854
5,536
7,206
8,865
10,532
12,238
13,991
15,782
17,576
19,309
20,934
22,426
23,763
24,94
25,945
26,749
27,332
27,678
27,763
27,561
27,028
26,1
24,746
22,971
20,811
18,35
15,657
12,786
9,79
6,71
3,591
0,481
-2,575
-5,545
-8,392
-11,074
-13,532
-15,69
-17,495
-18,928
-20,015
-20,832
-21,446
-21,924
-22,316
-22,657
-23,003
-23,415
-23,947
-24,648
-25,546
-26,638
-27,955
-29,562
-31,455
-33,566
-35,703
-37,537
-38,785
-39,258
-38,809
-37,32
-34,788
-31,299
-27,127
-22,807
-18,849
-15,62
-13,239
-11,533
-10,023
-8,077
-4,916
0,553
9,503
23,031
41,784
65,705
94,067
125,771
159,542
193,61
225,78
253,584
274,829
288,061
292,585
288,11
274,489
252,308
223
188,642
151,565
113,836
77,147
43,216
13,965
-9,379
-26,465
-37,551
-43,43
-44,977
-42,974
-38,607
-33,534
-28,939
-25,434
-23,273
-22,26
-22,171
-22,909
-24,05
-24,849
-24,851
-23,882
-21,986
-19,496
-16,689
-13,711
-10,814
-8,319
-6,427
-5,251
-4,8
-4,95
-5,595
-6,66
-8,05
-9,681
-11,476
-13,346
-15,204
-16,975
-18,597
-20,03
-21,243
-22,214
-22,922
-23,361
-23,541
-23,488
-23,228
-22,782
-22,168
-21,395
-20,485
-19,463
-18,359
-17,205
-16,021
-14,817
-13,6
-12,377
-11,147
-9,908
-8,648
-7,35
-6,002
-4,594
-3,12
-1,575
0,05
1,762
3,568
5,476
7,488
9,607
11,835
14,173
16,62
19,171
21,823
24,568
27,401
30,314
33,302
36,357
39,471
42,637
45,846
49,087
52,351
55,627
58,902
62,164
65,399
68,594
71,735
74,808
77,797
80,689
83,47
86,125
88,64
91,002
93,198
95,216
97,044
98,672
100,088
101,285
102,253
102,986
103,478
103,724
103,719
103,461
102,949
102,181
101,159
99,884
98,358
96,587
94,573
92,325
89,849
87,154
84,25
81,146
77,856
74,392
70,767
66,995
63,09
59,069
54,946
50,738
46,46
42,128
37,759
33,368
28,972
24,586
20,225
15,904
11,638
7,44
3,323
-0,7
-4,617
-8,417
-12,09
-15,625
-19,015
-22,25
-25,324
-28,23
-30,964
-33,521
-35,898
-38,092
-40,104
-41,932
-43,577
-45,042
-46,328
-47,44
-48,38
-49,155
-49,77
-50,229
-50,541
-50,711
-50,748
-50,658
-50,45
-50,132
-49,713
-49,2
-48,603
-47,931
-47,192
-46,395
-45,549
-44,662
-43,744
-42,802
-41,845
-40,88
-39,915
-38,958
-38,015
-37,092
-36,194
-35,327
-34,496
-33,705
-32,957
-32,256
-31,604
-31,005
-30,46
-29,97
-29,538
-29,164
-28,849
-28,594
-28,397
-28,26
-28,181
-28,159
-28,194
-28,283
-28,426
-28,619
-28,861
-29,149
-29,48
-29,851
-30,258
-30,699
-31,171
-31,669
-32,192
-32,734
-33,295
-33,87
-34,457
-35,053
-35,656
-36,262
-36,87
-37,478
-38,082
-38,68
-39,271
-39,853
-40,423
-40,979
-41,52
-42,044
-42,549
-43,035
-43,501
-43,945
-44,367
-44,767
-45,144
-45,501
-45,836
-46,152
-46,449
-46,728
-46,992
-47,241
-47,477
-47,701
-47,917
-48,124
-48,325
-48,521
-48,715
-48,908
-49,101
-49,298
-49,498
-49,705
-49,92
-50,144
-50,38
-50,629
-50,892
-51,171
-51,467
-51,782
-52,116
-52,47
-52,844
-53,237
-53,649
-54,08
-54,527
-54,99
-55,465
-55,952
-56,448
-56,949
-57,454
-57,958
-58,458
-58,952
-59,434
-59,902
-60,35
-60,776
-61,173
-61,538
-61,866
-62,153
-62,394
-62,583
-62,718
-62,793
-62,803
-62,745
-62,613
-62,405
-62,117
-61,746
-61,289
-60,743
-60,109
-59,383
-58,567
-57,66
-56,663
-55,576
-54,401
-53,141
-51,799
-50,378
-48,882
-47,316
-45,686
-43,999
-42,261
-40,481
-38,668
-36,832
-34,981
-33,127
-31,279
-29,448
-27,646
-25,882
-24,165
-22,507
-20,918
-19,409
-17,991
-16,675
-15,471
-14,39
-13,44
-12,63
-11,969
-11,465
-11,123
-10,946
-10,941
-11,112
-11,472
-12,025
-12,771
-13,706
-14,822
-16,108
-17,553
-19,137
-20,834
-22,613
-24,45
-26,319
-28,204
-30,09
-31,951
-33,757
-35,468
-37,052
-38,494
-39,787
-40,928
-41,919
-42,767
-43,493
-44,152
-44,8
-45,476
-46,211
-47,021
-47,911
-48,917
-50,078
-51,427
-53,006
-54,819
-56,838
-59,039
-61,377
-63,777
-66,183
-68,497
-70,509
-72,059
-72,986
-73,117
-72,416
-70,828
-68,124
-64,075
-58,666
-51,922
-44,065
-35,47
-26,122
-15,958
-5,209
5,855
17,157
28,768
41,238
55,492
71,907
90,536
111,508
134,8
160,074
186,63
213,011
236,894
256,191
269,308
274,595
271,418
259,749
239,026
210,18
173,866
130,957
85,966
42,742
5,91
-19,915
-36,26
-44,952
-48,108
-49,463
-48,66
-45,605
-41,899
-37,848
-34,817
-34,008
-35,066
-37,581
-41,102
-44,82
-47,962
-50,134
-51,101
-50,827
-49,641
-47,867
-45,719
-43,514
-41,575
-40,066
-39,102
-38,706
-38,767
-39,201
-39,936
-40,873
-41,936
-43,054
-44,156
-45,172
-46,031
-46,672
-47,053
-47,148
-46,941
-46,426
-45,596
-44,462
-43,052
-41,392
-39,507
-37,42
-35,144
-32,704
-30,129
-27,453
-24,715
-21,944
-19,157
-16,368
-13,588
-10,822
-8,072
-5,335
-2,597
0,15
2,912
5,694
8,497
11,325
14,188
17,09
20,039
23,039
26,094
29,207
32,38
35,614
38,908
42,26
45,665
49,12
52,62
56,162
59,741
63,353
66,99
70,647
74,316
77,99
81,659
85,312
88,94
92,529
96,068
99,545
102,946
106,258
109,468
112,561
115,525
118,346
121,009
123,503
125,815
127,932
129,844
131,539
133,007
134,241
135,231
135,972
136,458
136,684
136,647
136,346
135,779
134,948
133,854
132,5
130,89
129,031
126,929
124,592
122,03
119,253
116,273
113,102
109,753
106,24
102,577
98,781
94,865
90,846
86,739
82,562
78,329
74,059
69,766
65,464
61,168
56,892
52,65
48,458
44,325
40,261
36,28
32,4
28,631
24,988
21,473
18,082
14,827
11,723
8,751
5,898
3,153
0,496
-2,057
-4,474
-6,774
-8,993
-11,049
-12,845
-14,444
-15,846
-17,036
-18,236
-18,868
-18,367
-17,553
-16,678
-17,241
-21,038
-26,095
-31,097
-34,087
-32,371
-28,34
-24,024
-20,814
-21,005
-22,962
-25,03
-26,844
-27,393
-27,269
-27,229
-27,132
-27,078
-27,016
-26,796
-26,52
-26,269
-26,018
-25,762
-25,513
-25,269
-25,025
-24,779
-24,517
-24,224
-23,906
-23,573
-23,221
-22,854
-22,471
-22,073
-21,663
-21,245
-20,819
-20,387
-19,949
-19,509
-19,068
-18,629
-18,194
-17,765
-17,346
-16,938
-16,545
-16,168
-15,811
-15,475
-15,163
-14,877
-14,619
-14,391
-14,195
-14,031
-13,902
-13,808
-13,75
-13,728
-13,743
-13,795
-13,883
-14,006
-14,164
-14,356
-14,58
-14,835
-15,119
-15,431
-15,768
-16,127
-16,508
-16,907
-17,321
-17,747
-18,184
-18,627
-19,074
-19,522
-19,969
-20,411
-20,846
-21,272
-21,685
-22,084
-22,466
-22,83
-23,173
-23,494
-23,792
-24,065
-24,312
-24,532
-24,724
-24,888
-25,023
-25,129
-25,205
-25,251
-25,266
-25,25
-25,203
-25,124
-25,013
-24,87
-24,695
-24,487
-24,247
-23,973
-23,666
-23,324
-22,949
-22,538
-22,089
-21,603
-21,081
-20,522
-19,928
-19,296
-18,623
-17,909
-17,16
-16,37
-15,526
-14,621
-13,642
-12,59
-11,483
-10,321
-9,087
-7,796
-6,488
-5,197
-3,957
-2,773
-1,595
-0,414
0,712
1,84
3,167
4,719
6,437
8,342
10,2
12,454
16,323
21,443
26,716
30,194
28,351
21,649
13,54
7,553
8,691
16,913
27,542
36,988
41,264
39,949
36,545
33,111
31,154
31,003
31,214
31,193
30,971
30,506
30,02
29,551
28,91
28,048
26,998
25,749
24,292
22,632
20,784
18,776
16,653
14,437
12,13
9,748
7,324
4,88
2,442
0,034
-2,324
-4,606
-6,776
-8,8
-10,647
-12,289
-13,711
-14,91
-15,887
-16,659
-17,243
-17,655
-17,929
-18,102
-18,222
-18,352
-18,556
-18,884
-19,401
-20,178
-21,22
-22,485
-23,865
-25,164
-26,202
-26,84
-26,958
-26,457
-25,409
-24,03
-22,616
-21,552
-21,065
-21,202
-21,914
-23,067
-24,246
-24,732
-23,698
-20,281
-13,977
-4,581
8,075
24,145
43,522
65,689
89,991
115,581
141,844
168,433
193,816
216,158
234,73
248,243
257,169
262,475
260,994
250,777
230,02
196,826
155,741
111,495
67,932
29,966
-1,529
-26,452
-44,202
-55,529
-60,475
-59,64
-54,581
-46,95
-38,91
-32,094
-27,286
-24,922
-24,893
-26,711
-29,913
-33,771
-37,332
-40,05
-41,676
-42,154
-41,729
-40,674
-39,199
-37,611
-36,258
-35,321
-34,883
-34,938
-35,362
-36,054
-36,939
-37,918
-38,909
-39,849
-40,672
-41,32
-41,757
-41,956
-41,894
-41,568
-40,97
-40,094
-38,952
-37,565
-35,964
-34,178
-32,233
-30,148
-27,945
-25,648
-23,291
-20,909
-18,528
-16,167
-13,84
-11,556
-9,326
-7,157
-5,046
-2,986
-0,969
1,011
2,958
4,874
6,764
8,637
10,501
12,365
14,235
16,118
18,02
19,948
21,907
23,901
25,933
28,003
30,113
32,265
34,462
36,704
38,993
41,329
43,712
46,142
48,613
51,119
53,656
56,215
58,795
61,385
63,972
66,547
69,115
71,673
74,222
76,75
79,226
81,633
83,978
86,234
88,343
90,26
91,933
93,344
94,538
95,52
96,22
96,688
97,129
97,584
97,979
98,338
98,427
98,658
100,366
103,283
106,174
107,04
102,084
91,477
79,057
68,624
65,577
70,355
77,853
84,12
84,919
79,449
71,544
63,588
57,183
52,86
49,077
45,13
41,089
36,914
32,854
28,988
25,119
21,197
17,273
13,355
9,445
5,565
1,735
-2,014
-5,637
-9,114
-12,452
-15,651
-18,701
-21,6
-24,341
-26,921
-29,344
-31,609
-33,713
-35,656
-37,439
-39,062
-40,531
-41,848
-43,018
-44,045
-44,935
-45,693
-46,327
-46,843
-47,247
-47,546
-47,749
-47,861
-47,891
-47,846
-47,733
-47,561
-47,335
-47,064
-46,753
-46,41
-46,04
-45,649
-45,243
-44,826
-44,404
-43,982
-43,563
-43,153
-42,754
-42,371
-42,007
-41,665
-41,347
-41,057
-40,795
-40,564
-40,365
-40,199
-40,067
-39,97
-39,908
-39,881
-39,889
-39,933
-40,013
-40,126
-40,274
-40,456
-40,671
-40,917
-41,196
-41,505
-41,845
-42,215
-42,614
-43,043
-43,499
-43,983
-44,493
-45,03
-45,591
-46,177
-46,785
-47,416
-48,067
-48,739
-49,429
-50,137
-50,862
-51,602
-52,358
-53,127
-53,908
-54,701
-55,504
-56,316
-57,135
-57,961
-58,79
-59,622
-60,455
-61,287
-62,115
-62,936
-63,747
-64,546
-65,329
-66,092
-66,829
-67,538
-68,217
-68,861
-69,469
-70,036
-70,554
-71,02
-71,435
-71,791
-72,073
-72,266
-72,356
-72,339
-72,228
-72,02
-71,693
-71,259
-70,752
-70,202
-69,639
-69,062
-68,418
-67,694
-66,944
-66,105
-64,978
-63,535
-61,832
-59,845
-57,806
-55,272
-51,025
-45,436
-39,591
-35,437
-36,482
-42,252
-49,315
-54,158
-51,801
-42,308
-30,338
-19,47
-13,681
-13,386
-15,105
-16,8
-16,973
-15,309
-13,257
-11,411
-9,755
-8,34
-6,955
-5,576
-4,404
-3,501
-2,844
-2,446
-2,319
-2,46
-2,865
-3,521
-4,4
-5,494
-6,813
-8,352
-10,101
-12,047
-14,172
-16,452
-18,857
-21,355
-23,918
-26,517
-29,128
-31,718
-34,247
-36,682
-38,992
-41,157
-43,168
-45,016
-46,687
-48,186
-49,533
-50,76
-51,912
-53,023
-54,111
-55,205
-56,342
-57,568
-58,938
-60,481
-62,199
-64,084
-66,11
-68,246
-70,46
-72,688
-74,832
-76,786
-78,429
-79,65
-80,352
-80,399
-79,633
-77,869
-74,895
-70,581
-64,903
-57,922
-49,812
-40,75
-30,851
-20,312
-9,429
1,619
12,852
24,582
37,416
51,826
67,952
85,804
105,374
126,51
148,642
170,551
190,428
206,503
217,41
222,151
219,844
209,673
191,503
166,176
135,379
101,21
65,685
30,582
-2,176
-30,416
-52,65
-68,284
-77,459
-80,967
-79,755
-74,737
-67,255
-59,102
-51,592
-45,472
-41,1
-38,357
-37,05
-37,044
-37,848
-38,661
-38,982
-38,616
-37,537
-35,972
-34,109
-32,029
-29,958
-28,213
-26,979
-26,326
-26,228
-26,532
-27,121
-27,929
-28,857
-29,808
-30,686
-31,392
-31,872
-32,118
-32,12
-31,875
-31,379
-30,619
-29,603
-28,361
-26,919
-25,309
-23,554
-21,675
-19,696
-17,645
-15,554
-13,454
-11,368
-9,307
-7,28
-5,29
-3,341
-1,436
0,431
2,271
4,094
5,909
7,723
9,539
11,366
13,213
15,089
17,005
18,965
20,977
23,046
25,178
27,375
29,642
31,98
34,388
36,867
39,418
42,04
44,734
47,497
50,327
53,221
56,175
59,184
62,241
65,338
68,468
71,619
74,784
77,95
81,107
84,242
87,342
90,396
93,389
96,308
99,14
101,869
104,483
106,967
109,309
111,495
113,512
115,35
116,996
118,44
119,672
120,685
121,469
122,018
122,327
122,39
122,206
121,77
121,084
120,148
118,963
117,533
115,863
113,959
111,829
109,48
106,922
104,166
101,224
98,107
94,829
91,404
87,846
84,171
80,394
76,53
72,595
68,605
64,576
60,523
56,46
52,404
48,369
44,368
40,415
36,522
32,702
28,967
25,326
21,79
18,368
15,067
11,894
8,856
5,957
3,202
0,594
-1,865
-4,174
-6,332
-8,34
-10,199
-11,911
-13,479
-14,906
-16,196
-17,353
-18,383
-19,291
-20,082
-20,761
-21,336
-21,81
-22,191
-22,483
-22,694
-22,828
-22,892
-22,89
-22,829
-22,714
-22,549
-22,339
-22,089
-21,804
-21,487
-21,141
-20,772
-20,381
-19,972
-19,549
-19,112
-18,665
-18,209
-17,747
-17,28
-16,809
-16,337
-15,863
-15,389
-14,915
-14,444
-13,975
-13,509
-13,048
-12,593
-12,144
-11,703
-11,271
-10,849
-10,439
-10,043
-9,661
-9,295
-8,947
-8,618
-8,31
-8,025
-7,763
-7,527
-7,316
-7,134
-6,98
-6,855
-6,761
-6,698
-6,667
-6,668
-6,702
-6,768
-6,868
-7
-7,166
-7,366
-7,598
-7,864
-8,164
-8,496
-8,861
-9,258
-9,687
-10,146
-10,634
-11,15
-11,692
-12,257
-12,845
-13,454
-14,081
-14,724
-15,383
-16,054
-16,736
-17,428
-18,126
-18,83
-19,538
-20,247
-20,957
-21,666
-22,373
-23,075
-23,773
-24,464
-25,146
-25,816
-26,474
-27,114
-27,734
-28,33
-28,898
-29,433
-29,931
-30,39
-30,806
-31,178
-31,502
-31,779
-32,006
-32,181
-32,303
-32,368
-32,371
-32,308
-32,174
-31,963
-31,674
-31,302
-30,845
-30,301
-29,672
-28,955
-28,149
-27,25
-26,251
-25,148
-23,942
-22,634
-21,234
-19,754
-18,211
-16,625
-15,017
-13,404
-11,799
-10,204
-8,616
-7,027
-5,43
-3,825
-2,222
-0,629
0,95
2,513
4,06
5,604
7,162
8,761
10,432
12,195
14,053
15,99
17,973
19,956
21,882
23,706
25,398
26,927
28,268
29,396
30,282
30,889
31,175
31,087
30,563
29,561
28,053
26,041
23,552
20,63
17,342
13,747
9,896
5,835
1,608
-2,736
-7,146
-11,557
-15,909
-20,13
-24,136
-27,856
-31,227
-34,206
-36,777
-38,941
-40,717
-42,122
-43,173
-43,89
-44,308
-44,476
-44,45
-44,296
-44,066
-43,809
-43,591
-43,49
-43,58
-43,929
-44,58
-45,515
-46,726
-48,238
-50
-51,92
-53,827
-55,396
-56,337
-56,515
-55,799
-54,077
-51,39
-47,726
-43,215
-38,355
-33,592
-29,132
-25,058
-21,128
-16,792
-11,722
-5,473
2,917
14,439
29,967
50,067
74,49
102,342
132,839
165,099
197,653
228,468
255
274,991
286,987
290,848
287,254
275,596
255,152
225,376
185,077
136,999
86,626
39,065
1,018
-25,184
-42,6
-54,14
-64,013
-73,787
-80,753
-83,515
-81,624
-76,109
-69,955
-64,772
-60,828
-58,114
-56,29
-55,222
-54,938
-54,978
-54,639
-53,592
-51,828
-49,548
-47,032
-44,443
-41,877
-39,553
-37,772
-36,711
-36,412
-36,806
-37,743
-39,108
-40,822
-42,803
-44,947
-47,138
-49,265
-51,235
-52,996
-54,523
-55,805
-56,817
-57,535
-57,98
-58,18
-58,176
-58,022
-57,725
-57,267
-56,664
-55,957
-55,085
-53,991
-52,778
-51,449
-49,998
-48,684
-46,979
-44,368
-41,679
-39,11
-38,098
-40,444
-44,125
-47,63
-48,85
-45,053
-38,645
-31,851
-25,653
-21,185
-16,423
-10,44
-5,634
-5,094
-10,926
-21,707
-31,523
-33,725
-25,607
-9,603
7,758
20,115
25,068
24,25
21,738
20,74
22,227
25,608
29,516
33,282
36,958
40,657
44,494
48,387
52,147
55,718
59,103
62,279
65,229
67,95
70,452
72,76
74,889
76,826
78,545
80,032
81,28
82,281
83,028
83,512
83,724
83,663
83,328
82,722
81,844
80,697
79,285
77,613
75,686
73,513
71,102
68,463
65,609
62,551
59,302
55,878
52,294
48,564
44,706
40,736
36,671
32,528
28,325
24,079
19,807
15,527
11,255
7,01
2,807
-1,338
-5,41
-9,396
-13,281
-17,053
-20,701
-24,215
-27,585
-30,802
-33,859
-36,748
-39,465
-42,005
-44,363
-46,539
-48,531
-50,338
-51,962
-53,404
-54,668
-55,758
-56,676
-57,429
-58,022
-58,462
-58,754
-58,908
-58,929
-58,828
-58,611
-58,288
-57,868
-57,359
-56,77
-56,109
-55,385
-54,606
-53,78
-52,914
-52,015
-51,092
-50,151
-49,199
-48,241
-47,284
-46,333
-45,393
-44,468
-43,563
-42,68
-41,822
-40,992
-40,193
-39,425
-38,691
-37,992
-37,328
-36,7
-36,109
-35,554
-35,035
-34,552
-34,105
-33,692
-33,313
-32,968
-32,657
-32,377
-32,129
-31,913
-31,727
-31,572
-31,445
-31,347
-31,277
-31,234
-31,218
-31,227
-31,261
-31,321
-31,406
-31,516
-31,65
-31,81
-31,995
-32,205
-32,441
-32,704
-32,993
-33,309
-33,652
-34,022
-34,421
-34,848
-35,304
-35,788
-36,301
-36,842
-37,412
-38,009
-38,633
-39,284
-39,96
-40,661
-41,387
-42,135
-42,906
-43,698
-44,509
-45,339
-46,185
-47,046
-47,919
-48,803
-49,694
-50,589
-51,487
-52,382
-53,273
-54,154
-55,022
-55,873
-56,703
-57,506
-58,28
-59,018
-59,717
-60,372
-60,979
-61,532
-62,027
-62,46
-62,827
-63,123
-63,343
-63,484
-63,541
-63,512
-63,392
-63,179
-62,869
-62,461
-61,952
-61,342
-60,629
-59,812
-58,894
-57,874
-56,755
-55,538
-54,229
-52,829
-51,344
-49,781
-48,145
-46,443
-44,684
-42,875
-41,025
-39,144
-37,242
-35,33
-33,419
-31,521
-29,649
-27,816
-26,036
-24,323
-22,69
-21,151
-19,719
-18,408
-17,228
-16,19
-15,305
-14,582
-14,031
-13,662
-13,48
-13,494
-13,711
-14,138
-14,779
-15,636
-16,709
-17,994
-19,49
-21,194
-23,104
-25,218
-27,531
-30,03
-32,707
-35,549
-38,538
-41,651
-44,854
-48,107
-51,375
-54,627
-57,834
-60,969
-63,995
-66,881
-69,598
-72,119
-74,421
-76,491
-78,308
-79,865
-81,171
-82,242
-83,117
-83,855
-84,495
-85,075
-85,627
-86,166
-86,735
-87,382
-88,133
-89,002
-89,976
-91,01
-92,09
-93,23
-94,361
-95,337
-95,937
-95,903
-95,087
-93,472
-91,04
-87,63
-83,093
-77,499
-71,059
-64,107
-57,035
-49,827
-42,198
-34,34
-25,828
-15,928
-4,946
7,617
21,253
34,747
49,985
68,368
91,295
119,765
149,838
178,165
203,461
224,803
244,004
260,4
267,774
260,021
232,022
181,812
116,6
46,541
-17,79
-64,882
-91,392
-99,498
-94,639
-86,425
-80,066
-76,776
-75,692
-73,495
-69,394
-64,538
-60,15
-57,87
-57,99
-59,69
-62,286
-64,918
-66,84
-67,848
-67,916
-67,145
-65,822
-64,202
-62,476
-60,891
-59,724
-59,109
-59,082
-59,599
-60,524
-61,75
-63,204
-64,795
-66,425
-68,004
-69,431
-70,638
-71,599
-72,291
-72,702
-72,826
-72,65
-72,177
-71,43
-70,435
-69,217
-67,801
-66,201
-64,438
-62,542
-60,543
-58,482
-56,384
-54,268
-52,145
-50,021
-47,903
-45,794
-43,69
-41,58
-39,455
-37,305
-35,125
-32,912
-30,661
-28,363
-26,011
-23,595
-21,109
-18,551
-15,916
-13,199
-10,4
-7,518
-4,552
-1,508
1,614
4,811
8,08
11,419
14,825
18,292
21,816
25,39
29,008
32,662
36,342
40,039
43,743
47,442
51,124
54,778
58,391
61,949
65,441
68,851
72,167
75,376
78,462
81,413
84,217
86,859
89,329
91,614
93,704
95,589
97,26
98,709
99,928
100,911
101,654
102,152
102,403
102,405
102,159
101,666
100,928
99,949
98,735
97,291
95,625
93,746
91,664
89,39
86,934
84,311
81,533
78,615
75,572
72,418
69,171
65,847
62,461
59,03
55,57
52,099
48,632
45,184
41,773
38,412
35,116
31,899
28,774
25,754
22,85
20,073
17,431
14,934
12,589
10,403
8,381
6,528
4,849
3,344
2,017
0,868
-0,104
-0,9
-1,522
-1,974
-2,259
-2,382
-2,349
-2,166
-1,838
-1,373
-0,778
-0,061
0,77
1,707
2,742
3,867
5,072
6,349
7,691
9,089
10,536
12,025
13,547
15,098
16,669
18,255
19,85
21,448
23,043
24,632
26,209
27,772
29,315
30,837
32,334
33,804
35,246
36,658
38,038
39,385
40,697
41,975
43,217
44,424
45,594
46,728
47,825
48,886
49,911
50,899
51,85
52,764
53,639
54,477
55,276
56,036
56,757
57,438
58,08
58,683
59,247
59,772
60,259
60,708
61,12
61,495
61,835
62,141
62,414
62,657
62,871
63,06
63,227
63,375
63,507
63,626
63,738
63,846
63,955
64,071
64,199
64,344
64,514
64,715
64,954
65,238
65,575
65,971
66,433
66,967
67,58
68,277
69,066
69,949
70,934
72,024
73,222
74,533
75,958
77,498
79,154
80,926
82,812
84,809
86,915
89,126
91,437
93,842
96,335
98,909
101,555
104,263
107,024
109,824
112,653
115,494
118,333
121,156
123,948
126,692
129,374
131,979
134,492
136,899
139,187
141,343
143,353
145,205
146,886
148,386
149,694
150,801
151,7
152,38
152,839
153,073
153,079
152,856
152,399
151,703
150,768
149,599
148,204
146,593
144,779
142,781
140,626
138,352
135,994
133,588
131,166
128,758
126,4
124,131
121,988
120,005
118,204
116,596
115,199
114,021
113,054
112,275
111,639
111,085
110,56
110,013
109,386
108,625
107,668
106,461
104,971
103,184
101,112
98,777
96,202
93,422
90,506
87,555
84,72
82,167
80,054
78,552
77,847
78,151
79,715
82,709
87,199
93,136
100,346
108,673
118,034
128,286
139,182
150,566
162,434
175,058
189,043
204,84
222,559
242,157
263,508
286,292
309,823
332,815
353,325
369,475
379,819
383,269
379,085
366,838
346,704
319,74
287,943
253,645
219,064
186,23
156,839
132,36
113,753
101,218
94,155
91,469
91,9
94,121
97,049
99,723
101,421
101,861
101,137
99,597
97,753
96,183
95,238
95,147
96,021
97,736
100,087
102,819
105,604
108,113
110,154
111,617
112,461
112,741
112,513
111,846
110,847
109,619
108,254
106,83
105,414
104,076
102,886
101,896
101,145
100,653
100,429
100,477
100,791
101,352
102,136
103,117
104,27
105,578
107,016
108,558
110,173
111,825
113,488
115,144
116,781
118,392
119,972
121,522
123,046
124,557
126,065
127,579
129,104
130,644
132,204
133,794
135,421
137,094
138,819
140,601
142,445
144,355
146,334
148,384
150,505
152,693
154,949
157,27
159,655
162,102
164,607
167,167
169,776
172,43
175,122
177,844
180,586
183,339
186,093
188,84
191,569
194,268
196,922
199,521
202,057
204,509
206,86
209,097
211,196
213,148
214,958
216,608
218,081
219,394
220,547
221,531
222,367
223,036
223,476
223,681
223,668
223,321
222,546
221,435
219,962
218,076
216,091
213,49
209,612
205,331
200,932
197,792
198,399
201,231
204,086
204,644
198,561
186,597
172,886
160,231
153,037
152,276
153,817
155,264
154,173
148,895
141,883
134,659
127,707
122,001
116,806
111,489
106,292
101,105
95,986
91,108
86,381
81,73
77,187
72,751
68,402
64,155
60,03
56,031
52,178
48,49
44,961
41,588
38,377
35,325
32,431
29,695
27,111
24,677
22,388
20,241
18,232
16,356
14,607
12,979
11,464
10,055
8,747
7,53
6,396
5,338
4,348
3,417
2,536
1,7
0,898
0,125
-0,627
-1,365
-2,095
-2,824
-3,558
-4,302
-5,061
-5,841
-6,646
-7,48
-8,347
-9,252
-10,198
-11,188
-12,225
-13,312
-14,451
-15,645
-16,896
-18,205
-19,574
-21,004
-22,496
-24,05
-25,667
-27,345
-29,085
-30,886
-32,747
-34,668
-36,648
-38,685
-40,778
-42,928
-45,131
-47,389
-49,699
-52,061
-54,473
-56,935
-59,445
-62
-64,601
-67,243
-69,925
-72,645
-75,4
-78,186
-81
-83,839
-86,7
-89,578
-92,468
-95,366
-98,267
-101,169
-104,07
-106,967
-109,855
-112,728
-115,581
-118,42
-121,235
-124,012
-126,737
-129,395
-131,981
-134,51
-136,98
-139,369
-141,684
-143,965
-146,241
-148,546
-150,883
-153,195
-155,464
-157,746
-159,986
-161,973
-163,66
-165,111
-166,303
-167,456
-168,177
-167,163
-164,667
-161,905
-160,823
-165,134
-174,711
-185,818
-194,764
-196,302
-189,976
-180,792
-172,627
-169,632
-172,64
-177,936
-183,208
-186,922
-188,577
-189,7
-191,016
-192,476
-194,15
-195,818
-197,428
-199,191
-201,177
-203,36
-205,751
-208,369
-211,213
-214,28
-217,555
-221,012
-224,648
-228,475
-232,498
-236,709
-241,099
-245,668
-250,426
-255,368
-260,486
-265,796
-271,302
-277,006
-282,915
-288,993
-295,183
-301,471
-307,849
-314,195
-320,381
-326,449
-332,382
-338,148
-343,95
-349,174
-353,223
-356,914
-360,487
-365,456
-373,626
-382,969
-392,142
-399,159
-401,305
-401,041
-400,428
-400,868
-404,669
-410,12
-415,487
-420,341
-423,577
-425,736
-427,53
-428,768
-429,522
-429,686
-429,033
-427,571
-425,269
-422,022
-417,788
-412,551
-406,3
-399,035
-390,765
-381,541
-371,453
-360,609
-349,116
-337,055
-324,49
-311,521
-298,3
-284,949
-271,56
-258,15
-244,64
-230,966
-217,129
-203,131
-188,95
