Nome,Deborah Dore
Data di nascita,"14 gen 1999"
Data di registrazione,2022-01-20 17:22:24 +0100
Classificazione,Ritmo sinusale
Sintomi,
Versione software,1.90
Dispositivo,"Watch6,6"
Frequenza campione,512 hertz


Elettrodo,Elettrodo I
Unità,µV

13,182
13,484
13,709
13,858
13,933
13,935
13,864
13,723
13,514
13,241
12,909
12,522
12,087
11,608
11,09
10,541
9,965
9,368
8,754
8,13
7,499
6,868
6,24
5,622
5,017
4,429
3,863
3,323
2,811
2,333
1,891
1,487
1,124
0,804
0,529
0,299
0,117
-0,019
-0,109
-0,154
-0,156
-0,116
-0,036
0,08
0,23
0,41
0,616
0,845
1,093
1,355
1,627
1,905
2,185
2,462
2,732
2,991
3,234
3,457
3,657
3,83
3,971
4,078
4,147
4,175
4,159
4,098
3,989
3,832
3,626
3,37
3,065
2,712
2,311
1,866
1,376
0,846
0,279
-0,323
-0,956
-1,615
-2,297
-2,995
-3,707
-4,426
-5,148
-5,867
-6,578
-7,276
-7,957
-8,613
-9,242
-9,836
-10,391
-10,901
-11,362
-11,769
-12,117
-12,4
-12,617
-12,761
-12,831
-12,824
-12,736
-12,567
-12,313
-11,975
-11,551
-11,041
-10,446
-9,767
-9,005
-8,162
-7,242
-6,248
-5,183
-4,052
-2,86
-1,611
-0,312
1,031
2,412
3,824
5,258
6,707
8,162
9,613
11,051
12,463
13,84
15,167
16,433
17,626
18,731
19,738
20,633
21,405
22,043
22,538
22,879
23,057
23,06
22,88
22,507
21,935
21,156
20,167
18,962
17,539
15,901
14,052
11,992
9,723
7,236
4,53
1,61
-1,517
-4,841
-8,346
-12,012
-15,814
-19,713
-23,671
-27,653
-31,626
-35,571
-39,462
-43,265
-46,939
-50,431
-53,694
-56,702
-59,43
-61,856
-63,979
-65,805
-67,366
-68,723
-69,928
-71,021
-72,045
-73,034
-74,033
-75,103
-76,301
-77,705
-79,424
-81,488
-83,853
-86,409
-88,922
-91,146
-92,884
-93,859
-93,726
-92,313
-89,666
-86,077
-82,134
-78,38
-75,072
-72,418
-70,696
-69,947
-69,794
-69,382
-67,274
-61,943
-52,349
-37,663
-16,932
10,511
44,813
85,506
131,135
179,675
229,286
278,008
323,394
362,914
394,024
414,403
422,625
418,557
402,882
376,403
340,08
293,568
236,045
169,442
98,675
32,082
-21,143
-56,289
-74,532
-81,813
-84,865
-87,437
-89,767
-89,915
-87
-82,1
-76,992
-73,543
-72,419
-73,172
-75,188
-77,722
-80,005
-81,349
-81,343
-79,95
-77,416
-74,175
-70,619
-67,046
-63,8
-61,243
-59,582
-58,882
-59,091
-60,043
-61,589
-63,621
-66,009
-68,628
-71,363
-74,085
-76,681
-79,058
-81,135
-82,862
-84,205
-85,136
-85,646
-85,742
-85,447
-84,799
-83,838
-82,591
-81,088
-79,353
-77,417
-75,322
-73,106
-70,808
-68,453
-66,053
-63,616
-61,144
-58,633
-56,074
-53,45
-50,743
-47,934
-45,01
-41,96
-38,772
-35,431
-31,923
-28,234
-24,348
-20,256
-15,949
-11,426
-6,688
-1,737
3,423
8,788
14,358
20,127
26,083
32,216
38,514
44,958
51,526
58,185
64,887
71,595
78,278
84,911
91,481
97,971
104,36
110,63
116,764
122,749
128,581
134,248
139,726
145,008
150,091
154,997
159,78
164,47
169,07
173,574
177,957
182,197
186,282
190,174
193,816
197,147
200,096
202,612
204,666
206,209
207,177
207,478
206,975
205,574
203,226
199,889
195,546
190,176
183,746
176,274
167,836
158,509
148,393
137,572
126,106
114,094
101,664
88,975
76,232
63,598
51,188
39,123
27,51
16,462
6,119
-3,443
-12,209
-20,167
-27,329
-33,699
-39,264
-44,059
-48,154
-51,645
-54,659
-57,29
-59,597
-61,645
-63,501
-65,24
-66,96
-68,715
-70,52
-72,387
-74,322
-76,33
-78,429
-80,601
-82,801
-84,974
-87,05
-88,986
-90,762
-92,354
-93,741
-94,9
-95,798
-96,425
-96,793
-96,908
-96,779
-96,413
-95,815
-95,007
-94,024
-92,907
-91,695
-90,42
-89,101
-87,758
-86,41
-85,07
-83,754
-82,469
-81,214
-79,993
-78,811
-77,673
-76,586
-75,551
-74,565
-73,623
-72,724
-71,863
-71,041
-70,257
-69,509
-68,797
-68,124
-67,491
-66,902
-66,358
-65,86
-65,406
-64,994
-64,622
-64,29
-63,994
-63,732
-63,501
-63,3
-63,127
-62,981
-62,859
-62,761
-62,685
-62,629
-62,593
-62,575
-62,574
-62,591
-62,624
-62,675
-62,742
-62,826
-62,928
-63,048
-63,187
-63,344
-63,521
-63,716
-63,931
-64,164
-64,417
-64,689
-64,98
-65,291
-65,623
-65,975
-66,348
-66,742
-67,157
-67,593
-68,05
-68,527
-69,022
-69,534
-70,062
-70,603
-71,156
-71,717
-72,284
-72,854
-73,423
-73,986
-74,539
-75,078
-75,596
-76,088
-76,548
-76,971
-77,35
-77,68
-77,954
-78,167
-78,313
-78,386
-78,382
-78,295
-78,119
-77,851
-77,485
-77,019
-76,448
-75,77
-74,983
-74,085
-73,077
-71,957
-70,727
-69,388
-67,942
-66,394
-64,748
-63,008
-61,182
-59,276
-57,3
-55,263
-53,176
-51,051
-48,903
-46,746
-44,595
-42,467
-40,377
-38,342
-36,378
-34,502
-32,726
-31,067
-29,538
-28,154
-26,931
-25,884
-25,027
-24,373
-23,934
-23,719
-23,738
-24
-24,504
-25,254
-26,248
-27,494
-29
-30,772
-32,807
-35,1
-37,639
-40,409
-43,391
-46,556
-49,862
-53,27
-56,74
-60,238
-63,741
-67,225
-70,651
-73,977
-77,145
-80,105
-82,832
-85,303
-87,499
-89,417
-91,062
-92,466
-93,698
-94,806
-95,834
-96,816
-97,774
-98,753
-99,816
-101,018
-102,437
-104,17
-106,234
-108,573
-111,059
-113,448
-115,487
-116,961
-117,587
-117,031
-115,131
-111,962
-107,854
-103,397
-99,136
-95,333
-92,163
-89,873
-88,472
-87,528
-86,157
-82,914
-76,268
-65,222
-49,047
-26,882
1,822
37,069
78,321
124,063
172,222
221,085
268,879
313,311
352,081
382,981
403,918
413,712
412,382
400,32
378,076
346,578
305,479
253,964
193,662
128,72
66,514
15,647
-19,16
-38,684
-48,207
-53,699
-58,58
-62,983
-64,854
-63,568
-60,317
-56,731
-54,642
-54,682
-56,377
-59,291
-62,852
-66,244
-68,715
-69,77
-69,24
-67,346
-64,52
-61,129
-57,463
-53,869
-50,723
-48,26
-46,591
-45,692
-45,415
-45,629
-46,235
-47,12
-48,182
-49,344
-50,517
-51,605
-52,531
-53,2
-53,541
-53,521
-53,105
-52,275
-51,033
-49,391
-47,379
-45,042
-42,417
-39,532
-36,413
-33,081
-29,57
-25,919
-22,169
-18,363
-14,53
-10,689
-6,854
-3,034
0,774
4,577
8,391
12,237
16,131
20,087
24,117
28,233
32,444
36,761
41,196
45,765
50,483
55,362
60,406
65,615
70,985
76,506
82,165
87,941
93,802
99,718
105,66
111,604
117,54
123,457
129,342
135,18
140,954
146,654
152,291
157,878
163,421
168,933
174,424
179,913
185,448
191,067
196,788
202,622
208,548
214,53
220,541
226,541
232,476
238,277
243,843
249,058
253,832
258,078
261,709
264,634
266,726
267,881
268,025
267,105
265,103
262,022
257,866
252,657
246,452
239,333
231,415
222,837
213,706
204,125
194,198
184,03
173,755
163,494
153,339
143,361
133,616
124,15
115,009
106,23
97,814
89,748
82
74,52
67,285
60,28
53,49
46,901
40,489
34,236
28,14
22,213
16,461
10,894
5,515
0,328
-4,647
-9,386
-13,861
-18,041
-21,91
-25,458
-28,677
-31,567
-34,127
-36,361
-38,283
-39,911
-41,261
-42,35
-43,19
-43,795
-44,184
-44,378
-44,396
-44,259
-43,985
-43,592
-43,096
-42,514
-41,857
-41,14
-40,372
-39,563
-38,72
-37,855
-36,977
-36,094
-35,215
-34,347
-33,497
-32,672
-31,877
-31,116
-30,391
-29,705
-29,059
-28,455
-27,893
-27,373
-26,894
-26,457
-26,058
-25,698
-25,373
-25,083
-24,824
-24,593
-24,389
-24,208
-24,047
-23,905
-23,778
-23,663
-23,56
-23,464
-23,374
-23,287
-23,201
-23,114
-23,024
-22,929
-22,828
-22,719
-22,6
-22,472
-22,332
-22,18
-22,015
-21,837
-21,646
-21,441
-21,223
-20,99
-20,744
-20,484
-20,211
-19,925
-19,627
-19,317
-18,996
-18,666
-18,327
-17,98
-17,627
-17,27
-16,91
-16,548
-16,187
-15,827
-15,472
-15,122
-14,779
-14,446
-14,124
-13,815
-13,521
-13,244
-12,985
-12,746
-12,529
-12,336
-12,168
-12,028
-11,916
-11,834
-11,784
-11,767
-11,783
-11,835
-11,922
-12,046
-12,206
-12,403
-12,637
-12,906
-13,211
-13,55
-13,923
-14,326
-14,759
-15,22
-15,706
-16,214
-16,743
-17,29
-17,851
-18,423
-19,003
-19,587
-20,171
-20,753
-21,326
-21,889
-22,435
-22,962
-23,464
-23,937
-24,378
-24,781
-25,143
-25,458
-25,723
-25,932
-26,083
-26,171
-26,191
-26,141
-26,017
-25,817
-25,537
-25,175
-24,729
-24,197
-23,578
-22,871
-22,075
-21,189
-20,215
-19,152
-18,003
-16,77
-15,454
-14,059
-12,589
-11,047
-9,438
-7,767
-6,041
-4,264
-2,444
-0,589
1,295
3,196
5,107
7,017
8,914
10,787
12,623
14,412
16,14
17,795
19,364
20,837
22,202
23,447
24,563
25,539
26,363
27,025
27,517
27,829
27,952
27,879
27,604
27,12
26,427
25,526
24,415
23,091
21,549
19,788
17,814
15,633
13,255
10,693
7,964
5,095
2,126
-0,901
-3,949
-6,982
-9,976
-12,902
-15,721
-18,396
-20,884
-23,149
-25,178
-26,958
-28,469
-29,707
-30,684
-31,44
-32,063
-32,636
-33,223
-33,875
-34,624
-35,516
-36,618
-37,978
-39,63
-41,596
-43,85
-46,398
-49,296
-52,49
-55,861
-59,214
-62,192
-64,463
-65,793
-65,843
-64,268
-60,98
-55,912
-49,159
-41,244
-32,675
-23,946
-15,772
-8,135
-0,075
9,009
19,388
30,186
39,576
47,623
57,318
74,092
102,748
144,85
197,424
253,995
309,58
361,261
407,509
446,997
475,853
488,301
478,776
444,949
387,239
309,565
220,752
130,397
50,107
-9,357
-45,088
-59,325
-59,842
-56,964
-55,577
-56,885
-59,219
-59,338
-57,228
-54,373
-52,24
-52,501
-55,198
-59,365
-64,219
-68,67
-71,782
-73,272
-73,094
-71,468
-68,893
-65,803
-62,545
-59,523
-57,109
-55,502
-54,784
-54,911
-55,733
-57,116
-58,945
-61,099
-63,46
-65,919
-68,371
-70,703
-72,809
-74,609
-76,044
-77,074
-77,683
-77,858
-77,597
-76,924
-75,875
-74,486
-72,793
-70,822
-68,594
-66,144
-63,513
-60,748
-57,897
-54,995
-52,06
-49,107
-46,144
-43,173
-40,194
-37,192
-34,147
-31,041
-27,863
-24,601
-21,246
-17,784
-14,199
-10,473
-6,592
-2,544
1,679
6,087
10,692
15,502
20,522
25,746
31,166
36,773
42,555
48,495
54,573
60,758
67,023
73,342
79,692
86,052
92,401
98,719
104,983
111,167
117,257
123,249
129,144
134,953
140,692
146,377
152,031
157,691
163,377
169,104
174,881
180,702
186,553
192,412
198,251
204,044
209,756
215,327
220,68
225,716
230,32
234,391
237,819
240,482
242,278
243,111
242,887
241,549
239,061
235,399
230,562
224,539
217,325
208,955
199,5
189,076
177,824
165,874
153,36
140,443
127,281
114,041
100,908
88,018
75,479
63,4
51,866
40,984
30,873
21,609
13,225
5,714
-0,954
-6,804
-11,858
-16,173
-19,824
-22,908
-25,546
-27,817
-29,768
-31,458
-32,935
-34,267
-35,546
-36,826
-38,134
-39,482
-40,868
-42,3
-43,793
-45,333
-46,884
-48,397
-49,81
-51,09
-52,231
-53,219
-54,047
-54,699
-55,153
-55,404
-55,467
-55,356
-55,084
-54,664
-54,101
-53,418
-52,651
-51,839
-51,023
-50,236
-49,493
-48,814
-48,213
-47,706
-47,304
-47,011
-46,823
-46,739
-46,762
-46,89
-47,126
-47,467
-47,902
-48,423
-49,021
-49,686
-50,413
-51,192
-52,017
-52,88
-53,776
-54,7
-55,651
-56,622
-57,608
-58,603
-59,6
-60,593
-61,577
-62,544
-63,49
-64,409
-65,297
-66,149
-66,965
-67,74
-68,473
-69,162
-69,806
-70,406
-70,96
-71,47
-71,935
-72,359
-72,742
-73,087
-73,396
-73,672
-73,917
-74,134
-74,326
-74,496
-74,646
-74,778
-74,895
-75
-75,095
-75,182
-75,265
-75,345
-75,424
-75,505
-75,589
-75,677
-75,771
-75,871
-75,977
-76,089
-76,207
-76,33
-76,457
-76,587
-76,718
-76,848
-76,975
-77,098
-77,215
-77,322
-77,419
-77,502
-77,571
-77,622
-77,654
-77,666
-77,657
-77,624
-77,567
-77,485
-77,377
-77,243
-77,082
-76,895
-76,682
-76,442
-76,178
-75,891
-75,581
-75,25
-74,9
-74,535
-74,155
-73,764
-73,365
-72,96
-72,553
-72,147
-71,746
-71,351
-70,967
-70,596
-70,242
-69,906
-69,591
-69,3
-69,034
-68,793
-68,581
-68,397
-68,242
-68,116
-68,02
-67,952
-67,911
-67,897
-67,907
-67,94
-67,991
-68,059
-68,139
-68,227
-68,32
-68,412
-68,499
-68,575
-68,634
-68,671
-68,68
-68,654
-68,588
-68,475
-68,309
-68,083
-67,793
-67,432
-66,994
-66,476
-65,873
-65,18
-64,393
-63,508
-62,524
-61,436
-60,243
-58,944
-57,536
-56,021
-54,398
-52,669
-50,835
-48,9
-46,866
-44,738
-42,521
-40,22
-37,843
-35,395
-32,885
-30,322
-27,714
-25,073
-22,409
-19,734
-17,061
-14,403
-11,774
-9,188
-6,657
-4,198
-1,822
0,457
2,627
4,677
6,595
8,369
9,986
11,435
12,703
13,779
14,655
15,321
15,769
15,994
15,995
15,772
15,323
14,647
13,735
12,583
11,192
9,566
7,714
5,649
3,391
0,966
-1,588
-4,233
-6,933
-9,656
-12,379
-15,078
-17,726
-20,287
-22,717
-24,974
-27,027
-28,857
-30,446
-31,791
-32,906
-33,831
-34,637
-35,387
-36,133
-36,917
-37,774
-38,749
-39,898
-41,278
-42,939
-44,939
-47,361
-50,221
-53,458
-56,919
-60,328
-63,387
-65,843
-67,416
-67,761
-66,696
-64,272
-60,758
-56,731
-52,735
-49,022
-45,802
-43,372
-41,777
-40,655
-39,198
-36,017
-29,659
-19,15
-3,631
17,885
46,062
81,053
122,337
168,429
217,341
267,161
315,722
360,392
398,493
427,392
444,869
449,562
441,385
421,304
390,529
350,442
300,997
241,539
174,079
103,558
38,503
-11,98
-43,759
-58,552
-62,936
-64,192
-66,104
-68,926
-70,735
-70,377
-68,622
-66,973
-66,979
-69,1
-72,825
-77,456
-82,158
-86,217
-89,053
-90,333
-90,122
-88,697
-86,459
-83,817
-81,062
-78,493
-76,433
-75,037
-74,324
-74,232
-74,586
-75,26
-76,207
-77,346
-78,61
-79,944
-81,249
-82,447
-83,479
-84,265
-84,764
-84,954
-84,796
-84,3
-83,506
-82,456
-81,23
-79,874
-78,37
-76,715
-74,903
-72,933
-70,838
-68,642
-66,353
-63,996
-61,585
-59,126
-56,64
-54,118
-51,522
-48,814
-45,935
-42,856
-39,593
-36,151
-32,531
-28,733
-24,744
-20,558
-16,187
-11,634
-6,884
-1,928
3,25
8,657
14,276
20,086
26,064
32,193
38,47
44,88
51,392
57,971
64,591
71,234
77,892
84,561
91,218
97,845
104,426
110,936
117,361
123,69
129,897
135,965
141,891
147,68
153,356
158,954
164,47
169,888
175,189
180,324
185,255
189,937
194,295
198,278
201,852
204,971
207,609
209,731
211,26
212,118
212,219
211,466
209,815
207,246
203,732
199,289
193,945
187,736
180,746
173,041
164,643
155,596
145,948
135,761
125,159
114,277
103,237
92,173
81,183
70,343
59,748
49,461
39,519
29,959
20,785
12,017
3,727
-4,032
-11,233
-17,868
-23,982
-29,646
-34,898
-39,783
-44,34
-48,59
-52,57
-56,305
-59,79
-63,025
-66,008
-68,748
-71,297
-73,701
-75,973
-78,117
-80,107
-81,896
-83,468
-84,808
-85,894
-86,72
-87,278
-87,566
-87,607
-87,424
-87,032
-86,439
-85,637
-84,62
-83,397
-81,986
-80,415
-78,721
-76,928
-75,062
-73,154
-71,228
-69,301
-67,39
-65,5
-63,63
-61,789
-59,983
-58,224
-56,523
-54,887
-53,318
-51,82
-50,394
-49,038
-47,753
-46,534
-45,379
-44,285
-43,252
-42,281
-41,373
-40,529
-39,746
-39,026
-38,366
-37,762
-37,214
-36,717
-36,267
-35,86
-35,495
-35,168
-34,877
-34,62
-34,394
-34,197
-34,028
-33,885
-33,767
-33,671
-33,597
-33,544
-33,51
-33,495
-33,498
-33,519
-33,558
-33,614
-33,687
-33,777
-33,885
-34,01
-34,152
-34,312
-34,489
-34,683
-34,895
-35,123
-35,368
-35,63
-35,91
-36,208
-36,523
-36,855
-37,205
-37,572
-37,955
-38,353
-38,765
-39,19
-39,627
-40,073
-40,528
-40,99
-41,456
-41,927
-42,398
-42,869
-43,336
-43,799
-44,253
-44,696
-45,125
-45,537
-45,93
-46,3
-46,645
-46,961
-47,245
-47,495
-47,707
-47,879
-48,007
-48,088
-48,119
-48,096
-48,016
-47,876
-47,672
-47,402
-47,062
-46,651
-46,165
-45,602
-44,96
-44,237
-43,43
-42,538
-41,56
-40,494
-39,341
-38,099
-36,769
-35,352
-33,85
-32,265
-30,598
-28,852
-27,031
-25,138
-23,176
-21,151
-19,066
-16,928
-14,743
-12,518
-10,261
-7,98
-5,686
-3,39
-1,103
1,164
3,399
5,591
7,726
9,794
11,784
13,685
15,486
17,176
18,742
20,172
21,455
22,578
23,532
24,306
24,893
25,283
25,476
25,467
25,254
24,831
24,186
23,312
22,206
20,87
19,308
17,532
15,557
13,407
11,12
8,733
6,283
3,802
1,311
-1,164
-3,597
-5,95
-8,177
-10,243
-12,121
-13,799
-15,262
-16,512
-17,567
-18,474
-19,315
-20,167
-21,095
-22,151
-23,382
-24,846
-26,607
-28,729
-31,262
-34,255
-37,766
-41,793
-46,267
-51,039
-55,848
-60,404
-64,439
-67,644
-69,653
-70,239
-69,376
-67,221
-64,192
-60,685
-56,864
-52,914
-49,164
-45,747
-42,415
-38,551
-33,028
-24,643
-12,654
3,669
25,352
53,135
87,181
127,236
172,224
220,337
270,045
318,993
363,285
400,195
427,792
444,745
452,859
452,403
440,529
415,173
371,585
306,779
225,827
136,277
50,545
-16,661
-59,988
-80,231
-83,157
-79,519
-74,283
-67,048
-57,95
-46,561
-35,178
-29,49
-31,039
-37,414
-45,721
-51,444
-52,899
-52,148
-50,207
-48,105
-46,36
-43,906
-40,589
-36,909
-33,162
-29,916
-27,6
-26,211
-25,728
-26,125
-27,22
-28,847
-30,89
-33,213
-35,699
-38,263
-40,791
-43,159
-45,271
-47,057
-48,468
-49,477
-50,063
-50,214
-49,94
-49,268
-48,239
-46,888
-45,245
-43,338
-41,192
-38,84
-36,32
-33,674
-30,941
-28,147
-25,307
-22,43
-19,521
-16,578
-13,596
-10,561
-7,454
-4,26
-0,966
2,439
5,963
9,619
13,421
17,382
21,516
25,829
30,325
35,008
39,88
44,946
50,21
55,672
61,32
67,142
73,125
79,253
85,507
91,857
98,261
104,678
111,079
117,446
123,77
130,036
136,229
142,329
148,316
154,187
159,939
165,565
171,05
176,384
181,566
186,623
191,604
196,542
201,444
206,292
211,042
215,658
220,103
224,326
228,266
231,839
234,973
237,63
239,79
241,423
242,478
242,87
242,481
241,223
239,04
235,9
231,807
226,761
220,78
213,919
206,263
197,912
188,943
179,388
169,25
158,563
147,39
135,831
124,03
112,107
100,175
88,357
76,75
65,442
54,508
43,97
33,825
24,074
14,74
5,889
-2,382
-10,012
-16,969
-23,241
-28,855
-33,837
-38,231
-42,12
-45,578
-48,659
-51,409
-53,836
-55,93
-57,703
-59,177
-60,395
-61,428
-62,327
-63,128
-63,871
-64,57
-65,231
-65,843
-66,356
-66,73
-66,942
-66,98
-66,85
-66,573
-66,155
-65,606
-64,936
-64,144
-63,23
-62,202
-61,056
-59,802
-58,459
-57,051
-55,62
-54,206
-52,837
-51,537
-50,32
-49,198
-48,181
-47,276
-46,478
-45,791
-45,216
-44,756
-44,413
-44,191
-44,086
-44,093
-44,205
-44,411
-44,706
-45,082
-45,531
-46,048
-46,627
-47,263
-47,955
-48,699
-49,491
-50,327
-51,2
-52,105
-53,036
-53,988
-54,955
-55,93
-56,908
-57,884
-58,854
-59,814
-60,759
-61,685
-62,589
-63,47
-64,323
-65,146
-65,938
-66,696
-67,42
-68,107
-68,758
-69,37
-69,945
-70,481
-70,98
-71,441
-71,866
-72,255
-72,609
-72,93
-73,217
-73,473
-73,7
-73,898
-74,071
-74,219
-74,347
-74,456
-74,549
-74,629
-74,699
-74,76
-74,817
-74,872
-74,927
-74,985
-75,049
-75,12
-75,202
-75,298
-75,408
-75,536
-75,683
-75,852
-76,042
-76,255
-76,491
-76,75
-77,031
-77,333
-77,654
-77,993
-78,346
-78,712
-79,086
-79,465
-79,846
-80,223
-80,592
-80,947
-81,283
-81,594
-81,874
-82,115
-82,312
-82,457
-82,544
-82,567
-82,519
-82,393
-82,182
-81,88
-81,481
-80,979
-80,368
-79,644
-78,802
-77,838
-76,75
-75,538
-74,2
-72,738
-71,152
-69,445
-67,623
-65,688
-63,647
-61,507
-59,274
-56,958
-54,568
-52,115
-49,613
-47,073
-44,513
-41,946
-39,391
-36,862
-34,378
-31,956
-29,611
-27,361
-25,221
-23,207
-21,334
-19,621
-18,083
-16,736
-15,595
-14,67
-13,975
-13,519
-13,311
-13,355
-13,652
-14,203
-15,01
-16,079
-17,418
-19,032
-20,914
-23,055
-25,445
-28,07
-30,913
-33,945
-37,127
-40,418
-43,78
-47,181
-50,598
-53,997
-57,337
-60,566
-63,626
-66,472
-69,083
-71,441
-73,521
-75,309
-76,801
-78,014
-79,01
-79,856
-80,605
-81,312
-82,023
-82,783
-83,671
-84,811
-86,264
-88,032
-90,037
-92,088
-94,045
-95,832
-97,299
-98,212
-98,404
-97,759
-96,363
-94,649
-92,939
-91,35
-90,034
-89,027
-88,228
-87,608
-86,806
-84,836
-80,77
-73,805
-63,045
-47,997
-28,262
-3,16
27,472
63,13
103,248
146,885
192,691
239,034
283,337
322,514
354,487
379,285
398,007
411,466
418,394
413,159
389,479
343,255
274,459
191,105
104,962
28,329
-29,04
-65,315
-84,204
-92,882
-98,172
-102,573
-105,655
-105,237
-100,4
-92,675
-84,461
-78,166
-74,812
-74,108
-75,41
-77,895
-80,762
-83,278
-84,751
-84,842
-83,654
-81,498
-78,758
-75,783
-72,869
-70,336
-68,493
-67,484
-67,294
-67,801
-68,83
-70,229
-71,886
-73,69
-75,521
-77,261
-78,799
-80,033
-80,908
-81,389
-81,451
-81,081
-80,269
-79,021
-77,364
-75,34
-72,988
-70,342
-67,431
-64,274
-60,904
-57,359
-53,683
-49,92
-46,099
-42,237
-38,346
-34,437
-30,513
-26,573
-22,603
-18,583
-14,497
-10,333
-6,08
-1,729
2,732
7,321
12,05
16,926
21,959
27,155
32,522
38,072
43,806
49,721
55,807
62,05
68,434
74,945
81,558
88,236
94,947
101,657
108,346
115,005
121,622
128,178
134,657
141,036
147,305
153,475
159,545
165,51
171,371
177,126
182,793
188,416
194,019
199,616
205,204
210,748
216,219
221,596
226,841
231,914
236,76
241,286
245,426
249,13
252,335
254,987
256,998
258,251
258,66
258,158
256,688
254,227
250,745
246,212
240,63
234,021
226,418
217,902
208,534
198,359
187,449
175,879
163,759
151,235
138,431
125,466
112,473
99,576
86,918
74,639
62,843
51,617
41,045
31,176
22,062
13,764
6,308
-0,289
-6,033
-10,962
-15,107
-18,512
-21,248
-23,404
-25,092
-26,418
-27,463
-28,299
-29,003
-29,633
-30,247
-30,898
-31,612
-32,412
-33,317
-34,331
-35,459
-36,69
-37,998
-39,337
-40,649
-41,886
-43,017
-44,015
-44,854
-45,516
-45,987
-46,265
-46,363
-46,291
-46,06
-45,678
-45,16
-44,522
-43,792
-43
-42,182
-41,364
-40,568
-39,81
-39,105
-38,464
-37,892
-37,389
-36,949
-36,568
-36,241
-35,966
-35,742
-35,562
-35,42
-35,31
-35,224
-35,157
-35,104
-35,06
-35,022
-34,987
-34,953
-34,92
-34,888
-34,858
-34,826
-34,794
-34,759
-34,719
-34,674
-34,622
-34,563
-34,495
-34,42
-34,336
-34,245
-34,147
-34,044
-33,937
-33,828
-33,717
-33,607
-33,499
-33,396
-33,298
-33,207
-33,126
-33,055
-32,996
-32,95
-32,918
-32,901
-32,899
-32,915
-32,947
-32,998
-33,068
-33,158
-33,269
-33,402
-33,556
-33,734
-33,936
-34,163
-34,415
-34,693
-34,997
-35,328
-35,686
-36,072
-36,484
-36,925
-37,393
-37,889
-38,413
-38,965
-39,546
-40,154
-40,791
-41,455
-42,147
-42,866
-43,612
-44,384
-45,181
-46,003
-46,847
-47,712
-48,597
-49,498
-50,412
-51,337
-52,269
-53,205
-54,141
-55,072
-55,994
-56,902
-57,793
-58,66
-59,498
-60,303
-61,068
-61,787
-62,455
-63,066
-63,613
-64,091
-64,494
-64,817
-65,054
-65,199
-65,249
-65,197
-65,04
-64,774
-64,395
-63,901
-63,289
-62,559
-61,709
-60,739
-59,652
-58,448
-57,13
-55,702
-54,168
-52,531
-50,799
-48,977
-47,071
-45,091
-43,044
-40,941
-38,79
-36,604
-34,394
-32,175
-29,959
-27,76
-25,593
-23,471
-21,409
-19,42
-17,518
-15,714
-14,022
-12,453
-11,02
-9,735
-8,61
-7,656
-6,883
-6,3
-5,915
-5,735
-5,76
-5,992
-6,433
-7,084
-7,952
-9,041
-10,347
-11,867
-13,594
-15,515
-17,616
-19,87
-22,237
-24,68
-27,162
-29,648
-32,112
-34,527
-36,859
-39,073
-41,126
-42,983
-44,619
-46,017
-47,161
-48,045
-48,679
-49,109
-49,407
-49,649
-49,9
-50,203
-50,594
-51,131
-51,873
-52,883
-54,229
-55,934
-58,028
-60,57
-63,538
-66,847
-70,333
-73,663
-76,493
-78,576
-79,597
-79,233
-77,402
-74,11
-69,563
-64,339
-58,853
-53,314
-48,092
-43,461
-39,255
-35,124
-30,276
-23,311
-13,174
0,935
20,084
45,086
76,213
113,365
155,592
201,008
247,758
293,883
336,854
374,011
402,719
420,673
426,291
419,479
401,315
372,112
332,504
282,916
222,682
155,482
88,078
27,106
-19,406
-49,256
-66,59
-75,325
-80,573
-84,493
-85,05
-82,014
-76,002
-68,471
-62,148
-58,17
-56,442
-56,672
-58,146
-60,153
-62,081
-63,177
-62,992
-61,577
-59,205
-56,236
-53,002
-49,758
-46,791
-44,448
-42,923
-42,228
-42,275
-42,89
-43,92
-45,276
-46,85
-48,511
-50,146
-51,627
-52,844
-53,746
-54,296
-54,464
-54,244
-53,621
-52,598
-51,208
-49,495
-47,499
-45,26
-42,805
-40,155
-37,346
-34,417
-31,409
-28,366
-25,316
-22,273
-19,249
-16,25
-13,277
-10,327
-7,383
-4,422
-1,426
1,622
4,735
7,926
11,212
14,612
18,142
21,815
25,643
29,637
33,808
38,169
42,725
47,477
52,419
57,542
62,834
68,282
73,865
79,556
85,329
91,158
97,019
102,893
108,757
114,594
120,38
126,09
131,706
137,225
142,65
147,994
153,27
158,493
163,682
168,867
174,072
179,315
184,605
189,938
195,3
200,67
206,029
211,364
216,635
221,783
226,721
231,333
235,509
239,147
242,137
244,359
245,698
246,039
245,295
243,414
240,355
236,096
230,607
223,851
215,832
206,595
196,228
184,88
172,689
159,783
146,316
132,46
118,4
104,339
90,44
76,818
63,592
50,862
38,748
27,396
16,903
7,322
-1,332
-9,097
-16,006
-22,079
-27,375
-31,978
-35,993
-39,555
-42,754
-45,637
-48,261
-50,675
-52,948
-55,177
-57,425
-59,72
-62,079
-64,492
-66,957
-69,481
-72,042
-74,594
-77,079
-79,422
-81,58
-83,542
-85,293
-86,824
-88,116
-89,141
-89,889
-90,373
-90,601
-90,587
-90,342
-89,869
-89,193
-88,35
-87,379
-86,327
-85,224
-84,088
-82,937
-81,787
-80,653
-79,548
-78,479
-77,443
-76,441
-75,48
-74,562
-73,694
-72,875
-72,1
-71,363
-70,659
-69,983
-69,333
-68,705
-68,095
-67,503
-66,926
-66,367
-65,827
-65,307
-64,805
-64,32
-63,851
-63,396
-62,956
-62,529
-62,114
-61,711
-61,32
-60,942
-60,579
-60,232
-59,902
-59,59
-59,3
-59,032
-58,789
-58,573
-58,386
-58,231
-58,11
-58,027
-57,983
-57,98
-58,023
-58,111
-58,248
-58,434
-58,671
-58,958
-59,296
-59,684
-60,123
-60,61
-61,145
-61,725
-62,349
-63,012
-63,712
-64,445
-65,206
-65,991
-66,793
-67,607
-68,427
-69,246
-70,057
-70,852
-71,624
-72,366
-73,069
-73,725
-74,327
-74,867
-75,336
-75,727
-76,032
-76,244
-76,356
-76,361
-76,253
-76,026
-75,675
-75,196
-74,585
-73,838
-72,955
-71,933
-70,771
-69,471
-68,033
-66,459
-64,753
-62,92
-60,964
-58,893
-56,712
-54,432
-52,061
-49,612
-47,096
-44,527
-41,918
-39,285
-36,642
-34,006
-31,391
-28,813
-26,287
-23,829
-21,454
-19,18
-17,023
-15
-13,126
-11,419
-9,89
-8,553
-7,421
-6,501
-5,801
-5,326
-5,086
-5,092
-5,356
-5,881
-6,668
-7,714
-9,008
-10,538
-12,284
-14,214
-16,298
-18,504
-20,806
-23,182
-25,61
-28,065
-30,511
-32,901
-35,192
-37,347
-39,343
-41,166
-42,812
-44,286
-45,614
-46,855
-48,061
-49,275
-50,526
-51,833
-53,221
-54,736
-56,44
-58,38
-60,629
-63,27
-66,314
-69,712
-73,314
-76,855
-80,063
-82,69
-84,44
-85,001
-84,196
-82,014
-78,762
-75,009
-71,208
-67,672
-64,62
-62,229
-60,646
-59,729
-58,671
-56,151
-50,886
-41,719
-27,806
-8,394
17,514
50,496
90,115
135,248
184,354
235,39
286,564
335,313
377,57
410,524
432,608
443,543
446,01
440,688
425,071
396,633
350,502
285,497
208,004
126,918
55,007
2,664
-28,49
-41,909
-45,79
-48,073
-51,445
-55,52
-58,029
-57,629
-55,455
-53,294
-52,804
-54,535
-57,898
-62,139
-66,439
-70,027
-72,313
-72,943
-71,906
-69,496
-66,161
-62,336
-58,393
-54,689
-51,57
-49,243
-47,78
-47,145
-47,212
-47,851
-48,962
-50,432
-52,145
-54,011
-55,936
-57,813
-59,554
-61,055
-62,238
-63,056
-63,477
-63,481
-63,069
-62,254
-61,063
-59,537
-57,712
-55,62
-53,289
-50,749
-48,034
-45,184
-42,241
-39,242
-36,215
-33,174
-30,125
-27,068
-23,995
-20,893
-17,742
-14,518
-11,199
-7,768
-4,205
-0,488
3,398
7,467
11,728
16,188
20,846
25,697
30,728
35,916
41,242
46,688
52,237
57,881
63,6
69,379
75,206
81,064
86,945
92,854
98,795
104,776
110,82
116,95
123,199
129,613
136,216
143,017
150,021
157,216
164,59
172,122
179,768
187,473
195,175
202,792
210,241
217,429
224,234
230,541
236,232
241,181
245,291
248,48
250,665
251,777
251,757
250,567
248,213
244,724
240,14
234,516
227,918
220,431
212,173
203,251
193,765
183,808
173,458
162,809
151,969
141,057
130,196
119,478
108,965
98,699
88,716
79,049
69,721
60,733
52,072
43,74
35,758
28,176
21,039
14,357
8,117
2,275
-3,223
-8,413
-13,312
-17,936
-22,293
-26,396
-30,248
-33,836
-37,144
-40,175
-42,954
-45,536
-47,97
-50,276
-52,454
-54,487
-56,337
-57,989
-59,43
-60,644
-61,626
-62,375
-62,895
-63,211
-63,346
-63,314
-63,118
-62,747
-62,192
-61,459
-60,564
-59,53
-58,39
-57,171
-55,896
-54,597
-53,296
-52,01
-50,754
-49,531
-48,341
-47,188
-46,08
-45,024
-44,03
-43,104
-42,247
-41,461
-40,745
-40,097
-39,516
-38,997
-38,536
-38,131
-37,781
-37,487
-37,251
-37,074
-36,956
-36,897
-36,898
-36,957
-37,072
-37,242
-37,463
-37,735
-38,054
-38,42
-38,83
-39,283
-39,777
-40,31
-40,881
-41,488
-42,129
-42,802
-43,506
-44,238
-44,997
-45,781
-46,588
-47,417
-48,265
-49,131
-50,011
-50,904
-51,806
-52,715
-53,627
-54,54
-55,449
-56,352
-57,244
-58,122
-58,983
-59,824
-60,641
-61,433
-62,195
-62,926
-63,623
-64,284
-64,907
-65,491
-66,034
-66,535
-66,993
-67,408
-67,78
-68,11
-68,397
-68,644
-68,851
-69,02
-69,153
-69,254
-69,324
-69,367
-69,386
-69,385
-69,368
-69,34
-69,303
-69,263
-69,224
-69,189
-69,164
-69,151
-69,154
-69,177
-69,222
-69,292
-69,389
-69,513
-69,667
-69,85
-70,062
-70,303
-70,571
-70,866
-71,184
-71,523
-71,878
-72,247
-72,624
-73,005
-73,382
-73,75
-74,103
-74,432
-74,73
-74,991
-75,207
-75,37
-75,472
-75,507
-75,466
-75,343
-75,131
-74,825
-74,419
-73,908
-73,29
-72,56
-71,718
-70,762
-69,691
-68,508
-67,213
-65,81
-64,303
-62,696
-60,996
-59,21
-57,346
-55,413
-53,423
-51,388
-49,321
-47,237
-45,151
-43,08
-41,04
-39,048
-37,119
-35,272
-33,52
-31,879
-30,365
-28,992
-27,775
-26,729
-25,867
-25,203
-24,747
-24,51
-24,504
-24,735
-25,207
-25,92
-26,876
-28,077
-29,531
-31,24
-33,196
-35,392
-37,816
-40,453
-43,283
-46,277
-49,387
-52,565
-55,768
-58,953
-62,089
-65,145
-68,076
-70,839
-73,383
-75,668
-77,675
-79,394
-80,806
-81,903
-82,694
-83,219
-83,568
-83,828
-84,067
-84,337
-84,663
-85,091
-85,691
-86,525
-87,657
-89,124
-90,907
-93,004
-95,443
-98,173
-101,072
-103,895
-106,226
-107,7
-108,04
-106,946
-104,197
-99,704
-93,464
-85,781
-77,199
-68,156
-59,091
-50,42
-42,224
-34,32
-26,287
-17,152
-5,764
8,893
28,022
52,655
83,279
119,945
162,008
207,916
255,77
303,401
347,968
386,605
416,575
435,153
441,002
434,308
415,479
385,683
345,072
291,834
226,665
153,008
78,275
14,281
-31,082
-55,7
-63,384
-63,462
-62,554
-63,329
-65,55
-66,44
-65,353
-63,346
-61,597
-61,667
-63,779
-67,138
-71,027
-74,42
-76,423
-76,74
-75,332
-72,429
-68,515
-64,044
-59,392
-54,963
-51,135
-48,115
-45,988
-44,726
-44,197
-44,275
-44,859
-45,836
-47,093
-48,543
-50,087
-51,617
-53,035
-54,23
-55,114
-55,635
-55,757
-55,461
-54,744
-53,619
-52,113
-50,264
-48,107
-45,668
-42,972
-40,042
-36,909
-33,614
-30,198
-26,706
-23,171
-19,61
-16,036
-12,452
-8,854
-5,233
-1,57
2,16
5,975
9,892
13,924
18,083
22,379
26,826
31,436
36,223
41,2
46,375
51,748
57,317
63,077
69,014
75,111
81,343
87,679
94,092
100,553
107,037
113,524
119,99
126,418
132,787
139,072
145,256
151,337
157,319
163,212
169,034
174,801
180,537
186,277
192,043
197,851
203,714
209,624
215,564
221,514
227,447
233,341
239,166
244,856
250,323
255,457
260,143
264,272
267,73
270,387
272,129
272,858
272,492
270,984
268,313
264,459
259,409
253,149
245,671
237,017
227,283
216,598
205,103
192,939
180,257
167,236
154,063
140,902
127,893
115,14
102,717
90,715
79,227
68,353
58,199
48,823
40,228
32,394
25,29
18,873
13,091
7,855
3,048
-1,42
-5,612
-9,562
-13,28
-16,798
-20,161
-23,42
-26,634
-29,835
-33,029
-36,215
-39,392
-42,543
-45,642
-48,64
-51,458
-54,045
-56,373
-58,434
-60,235
-61,775
-63,043
-64,034
-64,745
-65,178
-65,342
-65,246
-64,894
-64,304
-63,502
-62,523
-61,42
-60,233
-58,987
-57,705
-56,402
-55,093
-53,794
-52,518
-51,268
-50,054
-48,883
-47,766
-46,717
-45,742
-44,845
-44,027
-43,285
-42,618
-42,025
-41,505
-41,059
-40,686
-40,384
-40,157
-40,005
-39,929
-39,929
-40,001
-40,142
-40,348
-40,614
-40,937
-41,31
-41,728
-42,187
-42,681
-43,205
-43,755
-44,326
-44,913
-45,51
-46,113
-46,717
-47,317
-47,909
-48,488
-49,05
-49,592
-50,111
-50,605
-51,069
-51,504
-51,907
-52,277
-52,613
-52,914
-53,18
-53,412
-53,608
-53,771
-53,902
-54,002
-54,072
-54,116
-54,135
-54,133
-54,111
-54,074
-54,022
-53,96
-53,89
-53,815
-53,738
-53,661
-53,587
-53,52
-53,461
-53,414
-53,381
-53,363
-53,363
-53,382
-53,422
-53,484
-53,569
-53,677
-53,809
-53,964
-54,143
-54,344
-54,567
-54,81
-55,073
-55,353
-55,65
-55,961
-56,285
-56,62
-56,964
-57,314
-57,67
-58,03
-58,391
-58,751
-59,11
-59,464
-59,814
-60,157
-60,492
-60,818
-61,133
-61,436
-61,727
-62,004
-62,267
-62,515
-62,746
-62,961
-63,16
-63,341
-63,506
-63,654
-63,785
-63,9
-63,999
-64,081
-64,147
-64,195
-64,226
-64,24
-64,235
-64,212
-64,169
-64,101
-64,01
-63,898
-63,755
-63,577
-63,357
-63,087
-62,77
-62,413
-62,007
-61,54
-61,03
-60,491
-59,932
-59,371
-58,791
-58,162
-57,501
-56,837
-56,093
-55,177
-54,144
-52,992
-51,706
-50,487
-48,803
-46,133
-43,234
-40,337
-38,826
-40,353
-43,109
-45,891
-46,904
-43,681
-38,426
-33,007
-28,709
-27,649
-28,333
-29,247
-30,064
-29,867
-29,207
-28,789
-28,491
-28,412
-28,513
-28,655
-28,933
-29,426
-30,114
-31,006
-32,119
-33,45
-34,995
-36,747
-38,68
-40,763
-42,976
-45,284
-47,646
-50,026
-52,391
-54,72
-56,987
-59,163
-61,21
-63,081
-64,739
-66,166
-67,345
-68,257
-68,904
-69,312
-69,531
-69,647
-69,738
-69,852
-70,04
-70,349
-70,832
-71,551
-72,572
-73,924
-75,649
-77,799
-80,345
-83,211
-86,238
-89,111
-91,523
-93,217
-93,867
-93,159
-91,022
-87,49
-82,8
-77,529
-72,052
-66,548
-61,346
-56,648
-52,232
-47,685
-42,175
-34,319
-23,139
-7,889
12,389
38,242
69,777
106,92
148,823
193,869
240,04
284,448
323,948
356,58
382,476
402,763
418,215
427,516
424,838
404,355
362,436
298,347
219,925
137,683
62,318
5,424
-30,513
-48,228
-52,295
-51,814
-50,136
-46,835
-43,398
-38,39
-33,374
-32,164
-33,73
-37,732
-43,131
-47,033
-50,132
-52,866
-54,64
-56,041
-56,494
-55,536
-53,732
-51,375
-48,826
-46,579
-44,881
-43,848
-43,566
-43,986
-44,954
-46,339
-48,036
-49,942
-51,963
-54,016
-56,003
-57,816
-59,367
-60,587
-61,429
-61,863
-61,876
-61,459
-60,615
-59,373
-57,768
-55,837
-53,611
-51,113
-48,36
-45,384
-42,221
-38,912
-35,504
-32,027
-28,5
-24,939
-21,354
-17,749
-14,12
-10,454
-6,731
-2,936
0,942
4,915
8,989
13,178
17,496
21,95
26,55
31,307
36,231
41,337
46,635
52,123
57,797
63,65
69,665
75,831
82,123
88,506
94,948
101,418
107,896
114,376
120,851
127,307
133,731
140,105
146,422
152,693
158,92
165,097
171,223
177,294
183,329
189,375
195,461
201,608
207,81
214,032
220,237
226,389
232,431
238,3
243,915
249,163
253,964
258,263
262,006
265,147
267,618
269,308
270,133
270,026
268,935
266,847
263,746
259,627
254,532
248,529
241,709
234,196
226,081
217,414
208,243
198,605
188,548
178,168
167,548
156,771
145,933
135,125
124,449
114,003
103,832
93,955
84,369
75,053
66,01
57,281
48,911
40,964
33,509
26,582
20,217
14,43
9,202
4,492
0,23
-3,645
-7,17
-10,357
-13,207
-15,712
-17,877
-19,724
-21,28
-22,591
-23,721
-24,723
-25,648
-26,527
-27,364
-28,14
-28,816
-29,358
-29,743
-29,963
-30,019
-29,921
-29,681
-29,311
-28,827
-28,234
-27,525
-26,694
-25,733
-24,646
-23,45
-22,169
-20,838
-19,489
-18,151
-16,85
-15,602
-14,419
-13,309
-12,273
-11,308
-10,413
-9,591
-8,845
-8,179
-7,596
-7,094
-6,67
-6,319
-6,035
-5,811
-5,642
-5,52
-5,443
-5,406
-5,409
-5,45
-5,528
-5,643
-5,792
-5,972
-6,18
-6,414
-6,67
-6,944
-7,233
-7,536
-7,849
-8,172
-8,503
-8,842
-9,188
-9,54
-9,9
-10,266
-10,639
-11,02
-11,408
-11,803
-12,207
-12,619
-13,041
-13,471
-13,912
-14,363
-14,825
-15,298
-15,783
-16,279
-16,786
-17,305
-17,835
-18,375
-18,927
-19,49
-20,063
-20,647
-21,241
-21,845
-22,457
-23,077
-23,704
-24,336
-24,973
-25,611
-26,251
-26,89
-27,527
-28,161
-28,791
-29,415
-30,032
-30,641
-31,241
-31,831
-32,411
-32,979
-33,534
-34,077
-34,605
-35,12
-35,621
-36,106
-36,577
-37,033
-37,474
-37,901
-38,313
-38,713
-39,099
-39,474
-39,839
-40,195
-40,543
-40,887
-41,227
-41,567
-41,907
-42,25
-42,599
-42,956
-43,323
-43,702
-44,096
-44,506
-44,936
-45,387
-45,861
-46,36
-46,885
-47,439
-48,022
-48,637
-49,283
-49,961
-50,673
-51,417
-52,195
-53,005
-53,847
-54,718
-55,618
-56,543
-57,491
-58,458
-59,441
-60,435
-61,437
-62,44
-63,441
-64,433
-65,411
-66,368
-67,299
-68,195
-69,052
-69,861
-70,615
-71,308
-71,933
-72,482
-72,95
-73,33
-73,617
-73,804
-73,887
-73,861
-73,722
-73,467
-73,092
-72,595
-71,976
-71,235
-70,372
-69,389
-68,289
-67,075
-65,752
-64,326
-62,804
-61,192
-59,499
-57,735
-55,909
-54,033
-52,118
-50,179
-48,231
-46,288
-44,369
-42,489
-40,664
-38,911
-37,246
-35,685
-34,243
-32,931
-31,764
-30,754
-29,915
-29,263
-28,806
-28,555
-28,52
-28,707
-29,126
-29,779
-30,664
-31,779
-33,123
-34,697
-36,508
-38,556
-40,835
-43,336
-46,045
-48,945
-52,013
-55,218
-58,514
-61,856
-65,201
-68,511
-71,76
-74,912
-77,925
-80,75
-83,333
-85,635
-87,639
-89,321
-90,663
-91,668
-92,352
-92,764
-92,983
-93,063
-93,056
-93,017
-92,994
-93,062
-93,297
-93,756
-94,514
-95,643
-97,142
-98,958
-100,975
-102,95
-104,641
-105,823
-106,194
-105,427
-103,35
-99,971
-95,494
-90,358
-84,963
-79,506
-74,216
-69,439
-65,286
-61,452
-57,22
-51,399
-42,754
-30,45
-13,61
8,876
37,775
73,281
114,825
160,909
209,677
259,294
307,427
351,262
387,881
414,45
429,119
430,847
419,491
396,231
361,992
317,881
265,015
203,459
136,415
69,966
10,508
-34,603
-63,478
-79,904
-87,691
-91,636
-93,242
-90,407
-83,094
-72,014
-58,76
-46,324
-36,249
-29,014
-25,21
-24,781
-27,26
-32,057
-38,195
-44,667
-50,71
-55,82
-59,549
-61,607
-61,979
-60,863
-58,69
-56,021
-53,428
-51,279
-49,798
-49,113
-49,207
-50,014
-51,394
-53,094
-54,798
-56,274
-57,39
-58,084
-58,373
-58,263
-57,747
-56,855
-55,636
-54,14
-52,403
-50,44
-48,249
-45,838
-43,233
-40,468
-37,587
-34,63
-31,619
-28,568
-25,483
-22,371
-19,234
-16,07
-12,87
-9,617
-6,299
-2,906
0,572
4,142
7,818
11,618
15,559
19,657
23,922
28,358
32,97
37,763
42,744
47,922
53,296
58,86
64,606
70,524
76,602
82,823
89,157
95,564
102,002
108,441
114,86
121,247
127,588
133,865
140,059
146,152
152,139
158,021
163,79
169,432
174,937
180,306
185,561
190,749
195,904
201,033
206,12
211,128
216,025
220,769
225,307
229,569
233,462
236,898
239,813
242,161
243,895
244,956
245,257
244,691
243,178
240,673
237,162
232,653
227,156
220,707
213,368
205,239
196,451
187,118
177,327
167,151
156,66
145,943
135,107
124,274
113,54
102,98
92,657
82,621
72,924
63,597
54,643
46,035
37,725
29,686
21,909
14,399
7,161
0,192
-6,52
-12,988
-19,21
-25,182
-30,901
-36,368
-41,587
-46,553
-51,25
-55,648
-59,716
-63,434
-66,795
-69,799
-72,449
-74,752
-76,712
-78,343
-79,668
-80,704
-81,47
-81,98
-82,248
-82,291
-82,132
-81,794
-81,302
-80,676
-79,936
-79,101
-78,188
-77,214
-76,193
-75,137
-74,054
-72,955
-71,85
-70,751
-69,665
-68,603
-67,57
-66,575
-65,622
-64,718
-63,866
-63,067
-62,323
-61,634
-61
-60,419
-59,891
-59,413
-58,982
-58,595
-58,25
-57,944
-57,671
-57,43
-57,216
-57,027
-56,858
-56,706
-56,57
-56,445
-56,33
-56,223
-56,123
-56,027
-55,935
-55,846
-55,759
-55,674
-55,59
-55,508
-55,427
-55,349
-55,275
-55,206
-55,143
-55,089
-55,045
-55,014
-54,999
-55,002
-55,026
-55,073
-55,146
-55,247
-55,379
-55,544
-55,743
-55,978
-56,251
-56,561
-56,911
-57,299
-57,727
-58,193
-58,697
-59,239
-59,815
-60,427
-61,07
-61,744
-62,447
-63,175
-63,927
-64,699
-65,489
-66,294
-67,11
-67,935
-68,763
-69,591
-70,416
-71,232
-72,036
-72,823
-73,589
-74,33
-75,041
-75,718
-76,357
-76,954
-77,507
-78,011
-78,465
-78,864
-79,208
-79,494
-79,721
-79,887
-79,992
-80,035
-80,016
-79,935
-79,791
-79,587
-79,321
-78,996
-78,613
-78,172
-77,676
-77,128
-76,529
-75,883
-75,192
-74,461
-73,694
-72,895
-72,068
-71,219
-70,352
-69,472
-68,585
-67,696
-66,81
-65,933
-65,069
-64,223
-63,4
-62,605
-61,84
-61,111
-60,421
-59,772
-59,167
-58,609
-58,1
-57,642
-57,236
-56,883
-56,585
-56,341
-56,151
-56,015
-55,931
-55,897
-55,912
-55,971
-56,071
-56,209
-56,378
-56,574
-56,791
-57,023
-57,262
-57,501
-57,734
-57,95
-58,144
-58,305
-58,425
-58,497
-58,512
-58,463
-58,342
-58,141
-57,854
-57,473
-56,993
-56,406
-55,709
-54,894
-53,959
-52,898
-51,71
-50,392
-48,942
-47,361
-45,648
-43,805
-41,835
-39,741
-37,528
-35,2
-32,766
-30,233
-27,609
-24,906
-22,136
-19,31
-16,445
-13,555
-10,656
-7,764
-4,896
-2,068
0,702
3,398
6,005
8,506
10,886
13,129
15,217
17,135
18,867
20,397
21,711
22,798
23,644
24,24
24,582
24,665
24,484
24,033
23,303
22,289
20,993
19,42
17,578
15,482
13,15
10,613
7,91
5,082
2,166
-0,804
-3,803
-6,802
-9,77
-12,666
-15,447
-18,074
-20,518
-22,76
-24,783
-26,58
-28,156
-29,553
-30,839
-32,08
-33,332
-34,62
-35,965
-37,405
-38,984
-40,754
-42,757
-45,012
-47,54
-50,381
-53,526
-56,897
-60,322
-63,5
-66,113
-67,904
-68,596
-67,88
-65,556
-61,605
-56,237
-49,901
-43,046
-35,954
-28,908
-22,331
-16,483
-11,183
-5,793
0,732
9,481
21,37
37,431
58,89
86,876
121,365
160,894
204,288
250,477
298,951
350,221
401,024
445,056
476,39
488,447
479,994
455,696
419,495
375,892
326,202
267,8
201,478
131,189
64,518
10,876
-24,897
-43,552
-50,404
-51,771
-51,39
-50,172
-47,08
-41,838
-35,69
-30,18
-26,823
-26,103
-27,489
-30,293
-33,657
-36,7
-38,726
-39,37
-38,665
-36,909
-34,508
-31,825
-29,162
-26,841
-25,199
-24,414
-24,5
-25,372
-26,853
-28,788
-31,077
-33,603
-36,235
-38,858
-41,344
-43,576
-45,495
-47,056
-48,227
-48,996
-49,348
-49,28
-48,822
-48,014
-46,894
-45,501
-43,861
-41,995
-39,937
-37,727
-35,407
-33,021
-30,599
-28,156
-25,704
-23,246
-20,784
-18,311
-15,814
-13,268
-10,657
-7,964
-5,174
-2,277
0,742
3,898
7,205
10,675
14,319
18,146
22,162
26,37
30,77
35,365
40,16
45,159
50,356
55,741
61,294
66,999
72,843
78,807
84,868
90,998
97,169
103,367
109,59
115,831
122,071
128,285
134,429
140,465
146,38
152,167
157,817
163,342
168,738
173,989
179,114
184,132
188,996
193,646
198,013
201,923
205,242
208,039
210,312
211,979
213,242
213,748
213,027
211,703
209,994
208,959
210,401
213,695
217,502
219,141
214,744
203,25
186,504
168,921
155,63
149,756
150,385
152,983
153,415
148,684
138,726
126,656
114,631
104,006
95,16
86,906
78,686
70,526
62,384
54,479
46,885
39,429
32,06
24,814
17,706
10,768
4,032
-2,488
-8,781
-14,827
-20,611
-26,129
-31,357
-36,275
-40,87
-45,133
-49,054
-52,624
-55,836
-58,693
-61,207
-63,393
-65,261
-66,818
-68,072
-69,029
-69,702
-70,107
-70,259
-70,175
-69,87
-69,364
-68,675
-67,825
-66,833
-65,714
-64,485
-63,159
-61,752
-60,28
-58,758
-57,201
-55,622
-54,035
-52,455
-50,894
-49,364
-47,876
-46,44
-45,064
-43,756
-42,523
-41,372
-40,306
-39,331
-38,449
-37,663
-36,975
-36,386
-35,894
-35,501
-35,203
-35
-34,888
-34,863
-34,923
-35,062
-35,276
-35,561
-35,911
-36,321
-36,786
-37,299
-37,857
-38,453
-39,081
-39,737
-40,413
-41,106
-41,809
-42,518
-43,229
-43,937
-44,637
-45,326
-46,002
-46,66
-47,298
-47,914
-48,504
-49,068
-49,604
-50,11
-50,586
-51,031
-51,445
-51,827
-52,178
-52,499
-52,789
-53,049
-53,28
-53,483
-53,658
-53,807
-53,931
-54,031
-54,108
-54,164
-54,199
-54,216
-54,215
-54,197
-54,165
-54,118
-54,058
-53,987
-53,905
-53,813
-53,713
-53,605
-53,491
-53,372
-53,249
-53,123
-52,995
-52,866
-52,736
-52,607
-52,479
-52,354
-52,232
-52,115
-52,002
-51,895
-51,794
-51,701
-51,614
-51,534
-51,461
-51,395
-51,335
-51,281
-51,233
-51,188
-51,147
-51,108
-51,069
-51,03
-50,986
-50,937
-50,879
-50,81
-50,725
-50,621
-50,495
-50,342
-50,158
-49,939
-49,68
-49,378
-49,026
-48,622
-48,159
-47,634
-47,043
-46,381
-45,644
-44,829
-43,934
-42,957
-41,896
-40,749
-39,517
-38,2
-36,8
-35,316
-33,753
-32,113
-30,399
-28,619
-26,776
-24,878
-22,933
-20,951
-18,943
-16,921
-14,897
-12,885
-10,899
-8,953
-7,062
-5,239
-3,497
-1,851
-0,313
1,101
2,378
3,501
4,458
5,235
5,82
6,203
6,373
6,322
6,048
5,549
4,822
3,86
2,653
1,193
-0,519
-2,481
-4,685
-7,12
-9,768
-12,605
-15,59
-18,688
-21,861
-25,077
-28,315
-31,548
-34,741
-37,853
-40,834
-43,641
-46,251
-48,642
-50,791
-52,7
-54,379
-55,865
-57,228
-58,519
-59,785
-61,069
-62,414
-63,869
-65,497
-67,347
-69,483
-71,986
-74,867
-78,07
-81,477
-84,852
-87,936
-90,506
-92,264
-92,861
-92,121
-90,079
-86,978
-83,332
-79,645
-76,196
-73,275
-71,248
-70,187
-69,717
-69,009
-66,716
-61,413
-52,056
-37,616
-16,95
10,668
45,325
86,31
132,018
180,451
229,592
277,008
319,879
355,393
380,976
394,954
396,406
385,342
363,035
330,596
289,311
240,229
183,422
122,105
62,073
9,574
-28,889
-52,531
-64,973
-70,141
-71,878
-70,639
-66,376
-60,383
-54,993
-53,386
-55,463
-60,03
-65,358
-69,089
-71,916
-74,342
-75,997
-77,294
-77,537
-76,298
-74,131
-71,318
-68,218
-65,323
-62,882
-61,037
-59,909
-59,467
-59,573
-60,111
-60,993
-62,121
-63,41
-64,799
-66,205
-67,541
-68,737
-69,703
-70,371
-70,703
-70,671
-70,26
-69,474
-68,323
-66,832
-65,038
-62,975
-60,667
-58,136
-55,398
-52,48
-49,416
-46,242
-42,996
-39,705
-36,384
-33,047
-29,699
-26,339
-22,959
-19,543
-16,07
-12,522
-8,886
-5,148
-1,297
2,683
6,803
11,071
15,498
20,094
24,87
29,839
35,009
40,379
45,944
51,697
57,626
63,714
69,937
76,257
82,637
89,051
95,481
101,921
108,361
114,787
121,184
127,538
133,848
140,117
146,341
152,509
158,611
164,65
170,648
176,652
182,695
188,784
194,901
201,01
207,077
213,058
218,9
224,532
229,855
234,779
239,236
243,175
246,547
249,287
251,306
252,493
252,763
252,067
250,384
247,716
244,067
239,463
233,96
227,649
220,655
213,087
205,026
196,54
187,693
178,568
169,268
159,91
150,586
141,368
132,313
123,472
114,894
106,611
98,626
90,911
83,418
76,117
69,002
62,076
55,345
48,807
42,45
36,262
30,247
24,413
18,763
13,301
8,024
2,94
-1,932
-6,559
-10,904
-14,944
-18,667
-22,069
-25,147
-27,902
-30,335
-32,455
-34,279
-35,823
-37,099
-38,118
-38,89
-39,43
-39,755
-39,886
-39,843
-39,645
-39,309
-38,849
-38,283
-37,624
-36,884
-36,073
-35,199
-34,271
-33,298
-32,29
-31,257
-30,207
-29,149
-28,089
-27,037
-25,998
-24,979
-23,984
-23,017
-22,082
-21,18
-20,315
-19,488
-18,701
-17,954
-17,248
-16,583
-15,96
-15,377
-14,836
-14,334
-13,873
-13,451
-13,068
-12,725
-12,42
-12,154
-11,927
-11,74
-11,593
-11,486
-11,421
-11,396
-11,414
-11,473
-11,575
-11,718
-11,904
-12,131
-12,4
-12,71
-13,063
-13,456
-13,891
-14,366
-14,882
-15,438
-16,032
-16,666
-17,336
-18,044
-18,787
-19,564
-20,373
-21,214
-22,083
-22,98
-23,901
-24,845
-25,808
-26,788
-27,783
-28,788
-29,801
-30,818
-31,837
-32,854
-33,866
-34,871
-35,865
-36,845
-37,81
-38,757
-39,683
-40,588
-41,467
-42,321
-43,148
-43,945
-44,713
-45,449
-46,154
-46,827
-47,468
-48,075
-48,651
-49,194
-49,705
-50,186
-50,637
-51,06
-51,457
-51,828
-52,177
-52,506
-52,817
-53,114
-53,399
-53,677
-53,948
-54,218
-54,489
-54,764
-55,046
-55,338
-55,644
-55,967
-56,308
-56,671
-57,058
-57,47
-57,911
-58,381
-58,881
-59,413
-59,976
-60,573
-61,202
-61,863
-62,555
-63,277
-64,028
-64,806
-65,607
-66,428
-67,266
-68,115
-68,972
-69,83
-70,683
-71,526
-72,351
-73,153
-73,923
-74,654
-75,34
-75,972
-76,544
-77,047
-77,475
-77,819
-78,075
-78,234
-78,292
-78,243
-78,082
-77,807
-77,412
-76,895
-76,254
-75,488
-74,596
-73,578
-72,437
-71,174
-69,795
-68,304
-66,708
-65,014
-63,232
-61,374
-59,451
-57,477
-55,466
-53,432
-51,392
-49,362
-47,358
-45,395
-43,49
-41,661
-39,924
-38,298
-36,8
-35,448
-34,258
-33,247
-32,429
-31,82
-31,43
-31,269
-31,342
-31,659
-32,228
-33,061
-34,166
-35,545
-37,196
-39,114
-41,286
-43,699
-46,323
-49,122
-52,058
-55,098
-58,21
-61,371
-64,553
-67,725
-70,849
-73,88
-76,779
-79,513
-82,057
-84,392
-86,509
-88,411
-90,136
-91,747
-93,302
-94,853
-96,42
-98,018
-99,679
-101,438
-103,339
-105,425
-107,71
-110,221
-113,005
-116,047
-119,263
-122,484
-125,403
-127,709
-129,167
-129,516
-128,474
-125,903
-121,826
-116,471
-110,316
-103,794
-97,103
-90,425
-84,03
-77,967
-71,949
-65,362
-57,158
-46,28
-32,104
-14,027
8,758
36,685
69,798
107,823
149,72
194,098
239,284
282,659
321,237
353,026
378,018
397,156
411,158
418,821
414,614
392,95
350,652
286,912
207,928
123,115
41,569
-26,269
-74,243
-101,364
-108,503
-100,719
-85,057
-67,186
-53,513
-48,344
-51,725
-61,601
-72,96
-81,215
-85,03
-85,019
-83,853
-83,416
-83,607
-83,768
-82,772
-80,238
-76,703
-72,717
-68,783
-65,269
-62,374
-60,229
-58,906
-58,35
-58,42
-58,992
-59,974
-61,278
-62,825
-64,541
-66,323
-68,066
-69,681
-71,063
-72,137
-72,86
-73,194
-73,119
-72,638
-71,762
-70,523
-68,959
-67,106
-64,986
-62,622
-60,037
-57,26
-54,333
-51,294
-48,185
-45,032
-41,853
-38,66
-35,456
-32,238
-28,995
-25,707
-22,351
-18,909
-15,366
-11,707
-7,92
-3,989
0,099
4,354
8,792
13,426
18,273
23,342
28,635
34,149
39,877
45,804
51,912
58,177
64,561
71,035
77,567
84,128
90,707
97,292
103,867
110,418
116,924
123,372
129,768
136,119
142,425
148,694
154,93
161,145
167,382
173,67
180,024
186,452
192,928
199,413
205,867
212,243
218,479
224,508
230,233
235,542
240,354
244,592
248,191
251,091
253,188
254,386
254,617
253,82
251,972
249,075
245,125
240,136
234,154
227,238
219,489
211,039
201,973
192,36
182,257
171,695
160,762
149,562
138,179
126,7
115,203
103,755
92,45
81,389
70,631
60,219
50,163
40,435
31,058
22,079
13,557
5,582
-1,797
-8,568
-14,706
-20,197
-25,048
-29,273
-32,928
-36,108
-38,867
-41,243
-43,256
-44,897
-46,19
-47,186
-47,939
-48,524
-49
-49,402
-49,775
-50,162
-50,579
-51,033
-51,498
-51,915
-52,251
-52,493
-52,635
-52,694
-52,672
-52,564
-52,367
-52,08
-51,7
-51,232
-50,676
-50,027
-49,293
-48,489
-47,646
-46,806
-46,003
-45,255
-44,579
-43,982
-43,472
-43,054
-42,73
-42,491
-42,334
-42,253
-42,247
-42,316
-42,457
-42,661
-42,921
-43,224
-43,56
-43,921
-44,3
-44,688
-45,081
-45,474
-45,863
-46,25
-46,634
-47,012
-47,383
-47,744
-48,093
-48,429
-48,749
-49,051
-49,334
-49,597
-49,839
-50,061
-50,265
-50,45
-50,618
-50,772
-50,913
-51,044
-51,167
-51,285
-51,4
-51,514
-51,632
-51,754
-51,884
-52,024
-52,177
-52,344
-52,528
-52,729
-52,949
-53,188
-53,445
-53,72
-54,014
-54,326
-54,655
-55
-55,361
-55,739
-56,131
-56,538
-56,958
-57,391
-57,836
-58,293
-58,76
-59,237
-59,723
-60,217
-60,72
-61,23
-61,747
-62,271
-62,801
-63,337
-63,877
-64,42
-64,967
-65,516
-66,067
-66,619
-67,171
-67,724
-68,275
-68,825
-69,373
-69,918
-70,459
-70,994
-71,522
-72,041
-72,549
-73,043
-73,521
-73,979
-74,415
-74,824
-75,201
-75,543
-75,844
-76,099
-76,302
-76,448
-76,53
-76,545
-76,485
-76,347
-76,124
-75,812
-75,407
-74,904
-74,299
-73,588
-72,769
-71,839
-70,797
-69,64
-68,369
-66,983
-65,483
-63,872
-62,152
-60,326
-58,398
-56,374
-54,258
-52,059
-49,784
-47,442
-45,043
-42,6
-40,125
-37,633
-35,138
-32,656
-30,202
-27,792
-25,441
-23,164
-20,975
-18,889
-16,917
-15,075
-13,377
-11,837
-10,47
-9,285
-8,295
-7,508
-6,935
-6,58
-6,446
-6,532
-6,841
-7,378
-8,151
-9,166
-10,422
-11,914
-13,632
-15,563
-17,688
-19,982
-22,405
-24,921
-27,491
-30,084
-32,678
-35,248
-37,759
-40,17
-42,433
-44,503
-46,357
-47,976
-49,341
-50,453
-51,324
-51,989
-52,515
-52,957
-53,36
-53,775
-54,24
-54,805
-55,529
-56,463
-57,674
-59,253
-61,215
-63,506
-66,011
-68,501
-70,743
-72,557
-73,681
-73,791
-72,712
-70,457
-67,257
-63,61
-59,95
-56,45
-53,253
-50,587
-48,504
-46,718
-44,503
-40,635
-33,849
-23,312
-8,353
11,844
37,918
70,104
107,986
150,269
195,336
241,615
287,292
330,26
367,549
396,102
414,323
420,865
416,772
404,369
382,724
351,609
308,578
249,8
179,314
104,376
35,492
-15,02
-44,268
-56,609
-59,026
-59,213
-59,102
-55,069
-45,493
-32,24
-19,403
-13,388
-15,962
-23,365
-31,783
-36,841
-37,204
-35,282
-32,419
-29,687
-27,479
-24,814
-21,541
-18,052
-14,616
-11,73
-9,725
-8,583
-8,26
-8,697
-9,725
-11,189
-12,999
-15,048
-17,226
-19,451
-21,599
-23,533
-25,184
-26,5
-27,44
-27,989
-28,126
-27,839
-27,152
-26,1
-24,716
-23,031
-21,066
-18,838
-16,376
-13,714
-10,895
-7,961
-4,939
-1,846
1,307
4,514
7,774
11,088
14,469
17,938
21,51
25,198
29,013
32,959
37,05
41,298
45,716
50,315
55,1
60,076
65,245
70,611
76,182
81,953
87,916
94,058
100,363
106,812
113,387
120,063
126,801
133,57
140,335
147,065
153,745
160,354
166,87
173,272
179,533
185,637
191,585
197,383
203,03
208,535
213,904
219,151
224,317
229,426
234,493
239,53
244,521
249,441
254,273
258,991
263,561
267,946
272,075
275,861
279,237
282,123
284,437
286,099
286,994
287,025
286,118
284,196
281,211
277,144
271,969
265,676
258,284
249,803
240,286
229,829
218,506
206,416
193,672
180,384
166,698
152,766
138,724
124,725
110,918
97,418
84,344
71,805
59,881
48,675
38,255
28,641
19,861
11,92
4,801
-1,506
-7,036
-11,856
-16,032
-19,651
-22,82
-25,615
-28,11
-30,381
-32,485
-34,503
-36,5
-38,506
-40,548
-42,643
-44,796
-47,021
-49,322
-51,674
-54,046
-56,398
-58,67
-60,827
-62,843
-64,69
-66,351
-67,801
-69,019
-70,006
-70,772
-71,325
-71,677
-71,836
-71,808
-71,62
-71,3
-70,878
-70,392
-69,869
-69,326
-68,784
-68,257
-67,757
-67,295
-66,874
-66,491
-66,143
-65,833
-65,56
-65,326
-65,128
-64,962
-64,822
-64,704
-64,604
-64,521
-64,451
-64,392
-64,345
-64,31
-64,289
-64,283
-64,294
-64,323
-64,368
-64,43
-64,507
-64,6
-64,707
-64,826
-64,958
-65,101
-65,256
-65,422
-65,599
-65,789
-65,989
-66,202
-66,427
-66,664
-66,914
-67,177
-67,454
-67,744
-68,047
-68,364
-68,694
-69,036
-69,39
-69,754
-70,128
-70,509
-70,896
-71,287
-71,681
-72,076
-72,47
-72,863
-73,252
-73,636
-74,014
-74,386
-74,75
-75,106
-75,452
-75,788
-76,114
-76,43
-76,734
-77,028
-77,31
-77,582
-77,844
-78,095
-78,337
-78,571
-78,796
-79,014
-79,226
-79,433
-79,636
-79,837
-80,036
-80,236
-80,438
-80,642
-80,851
-81,064
-81,284
-81,509
-81,742
-81,981
-82,227
-82,479
-82,737
-82,998
-83,261
-83,524
-83,784
-84,038
-84,282
-84,513
-84,725
-84,913
-85,074
-85,201
-85,29
-85,335
-85,329
-85,269
-85,147
-84,958
-84,696
-84,357
-83,935
-83,425
-82,823
-82,124
-81,326
-80,426
-79,42
-78,308
-77,089
-75,762
-74,328
-72,789
-71,147
-69,405
-67,568
-65,641
-63,631
-61,547
-59,397
-57,193
-54,949
-52,676
-50,389
-48,103
-45,834
-43,596
-41,406
-39,278
-37,226
-35,268
-33,418
-31,693
-30,111
-28,688
-27,437
-26,374
-25,51
-24,859
-24,431
-24,231
-24,265
-24,539
-25,061
-25,843
-26,896
-28,223
-29,821
-31,686
-33,806
-36,167
-38,747
-41,512
-44,426
-47,457
-50,571
-53,744
-56,952
-60,158
-63,322
-66,391
-69,317
-72,067
-74,617
-76,949
-79,06
-80,951
-82,65
-84,211
-85,678
-87,101
-88,529
-89,992
-91,543
-93,238
-95,118
-97,261
-99,762
-102,636
-105,849
-109,283
-112,708
-115,933
-118,796
-121,039
-122,377
-122,616
-121,661
-119,718
-117,214
-114,439
-111,571
-108,726
-105,998
-103,489
-101,157
-98,425
-94,282
-87,75
-77,928
-64,164
-45,826
-22,069
7,753
43,659
84,92
130,322
178,362
227,507
275,79
320,496
358,749
387,802
405,414
410,715
403,951
385,408
356,205
316,341
263,967
200,082
128,077
55,519
-5,205
-46,209
-65,761
-68,254
-63,951
-59,991
-58,78
-59,717
-59,734
-57,984
-55,549
-53,663
-53,734
-55,812
-59,129
-63,012
-66,479
-68,739
-69,51
-68,728
-66,679
-63,868
-60,686
-57,456
-54,522
-52,185
-50,635
-49,945
-50,057
-50,825
-52,107
-53,783
-55,743
-57,874
-60,07
-62,228
-64,231
-65,975
-67,381
-68,39
-68,966
-69,092
-68,755
-67,954
-66,715
-65,073
-63,064
-60,725
-58,08
-55,15
-51,967
-48,568
-44,999
-41,305
-37,517
-33,654
-29,732
-25,759
-21,74
-17,675
-13,556
-9,363
-5,083
-0,707
3,775
8,366
13,077
17,919
22,905
28,041
33,333
38,782
44,391
50,166
56,114
62,236
68,524
74,966
81,55
88,26
95,079
101,981
108,926
115,876
122,796
129,659
136,456
143,172
149,789
156,29
162,652
168,87
174,954
180,905
186,723
192,409
197,961
203,406
208,793
214,158
219,525
224,894
230,232
235,508
240,695
245,743
250,6
255,185
259,389
263,127
266,338
268,954
270,918
272,143
272,509
271,928
270,34
267,709
264,042
259,348
253,639
246,964
239,402
231,058
222,075
212,565
202,613
192,308
181,736
171,004
160,247
149,573
139,062
128,785
118,79
109,124
99,837
90,946
82,436
74,279
66,423
58,84
51,527
44,477
37,685
31,139
24,816
18,707
12,82
7,16
1,731
-3,463
-8,426
-13,147
-17,598
-21,753
-25,58
-29,058
-32,185
-34,955
-37,369
-39,431
-41,146
-42,527
-43,597
-44,374
-44,874
-45,115
-45,11
-44,879
-44,447
-43,837
-43,073
-42,178
-41,17
-40,069
-38,895
-37,665
-36,392
-35,091
-33,772
-32,446
-31,126
-29,823
-28,55
-27,315
-26,129
-24,999
-23,934
-22,941
-22,024
-21,187
-20,432
-19,761
-19,174
-18,67
-18,248
-17,906
-17,64
-17,446
-17,321
-17,259
-17,254
-17,301
-17,393
-17,525
-17,689
-17,881
-18,093
-18,319
-18,555
-18,794
-19,033
-19,265
-19,486
-19,692
-19,88
-20,044
-20,182
-20,291
-20,367
-20,41
-20,418
-20,389
-20,323
-20,221
-20,083
-19,91
-19,704
-19,468
-19,205
-18,918
-18,611
-18,288
-17,953
-17,613
-17,271
-16,934
-16,605
-16,291
-15,996
-15,725
-15,483
-15,275
-15,104
-14,974
-14,889
-14,852
-14,865
-14,932
-15,055
-15,234
-15,473
-15,771
-16,129
-16,548
-17,028
-17,568
-18,167
-18,825
-19,54
-20,308
-21,129
-21,998
-22,913
-23,869
-24,863
-25,889
-26,944
-28,021
-29,118
-30,228
-31,347
-32,471
-33,594
-34,712
-35,822
-36,919
-38
-39,062
-40,102
-41,118
-42,108
-43,071
-44,004
-44,907
-45,78
-46,622
-47,432
-48,212
-48,961
-49,68
-50,371
-51,034
-51,672
-52,287
-52,88
-53,455
-54,013
-54,559
-55,094
-55,621
-56,144
-56,666
-57,189
-57,716
-58,25
-58,791
-59,343
-59,905
-60,48
-61,067
-61,666
-62,278
-62,9
-63,531
-64,17
-64,813
-65,459
-66,104
-66,745
-67,377
-67,996
-68,597
-69,175
-69,726
-70,243
-70,721
-71,154
-71,537
-71,864
-72,128
-72,325
-72,447
-72,491
-72,451
-72,321
-72,098
-71,777
-71,356
-70,831
-70,201
-69,464
-68,621
-67,67
-66,614
-65,455
-64,194
-62,837
-61,388
-59,852
-58,237
-56,549
-54,799
-52,995
-51,151
-49,278
-47,388
-45,497
-43,618
-41,766
-39,954
-38,199
-36,512
-34,907
-33,399
-32,001
-30,728
-29,595
-28,615
-27,803
-27,17
-26,727
-26,486
-26,453
-26,634
-27,03
-27,646
-28,486
-29,56
-30,873
-32,427
-34,217
-36,235
-38,471
-40,905
-43,51
-46,248
-49,081
-51,971
-54,887
-57,802
-60,689
-63,517
-66,247
-68,833
-71,235
-73,421
-75,372
-77,069
-78,506
-79,695
-80,676
-81,515
-82,278
-83,014
-83,763
-84,562
-85,458
-86,507
-87,77
-89,29
-91,115
-93,316
-95,894
-98,797
-101,891
-104,917
-107,585
-109,638
-110,765
-110,631
-109,056
-106,007
-101,676
-96,54
-91,051
-85,524
-80,289
-75,667
-71,755
-68,365
-64,832
-59,985
-52,582
-41,519
-25,744
-4,174
23,963
58,934
100,455
147,5
198,368
251,211
303,396
351,024
391,355
422,477
443,154
455,085
458,212
449,615
427,189
386,336
324,538
247,14
161,487
79,07
13,313
-31,492
-55,96
-64,592
-67,127
-67,45
-65,813
-63,784
-59,798
-55,418
-54,455
-56,001
-59,876
-65,129
-68,882
-71,781
-74,188
-75,419
-75,988
-75,316
-72,937
-69,449
-65,244
-60,763
-56,583
-53,047
-50,318
-48,515
-47,626
-47,507
-48,029
-49,088
-50,556
-52,313
-54,278
-56,342
-58,393
-60,335
-62,051
-63,448
-64,475
-65,093
-65,28
-65,034
-64,363
-63,292
-61,861
-60,11
-58,067
-55,761
-53,216
-50,467
-47,556
-44,53
-41,436
-38,307
-35,162
-32,016
-28,876
-25,74
-22,601
-19,443
-16,241
-12,979
-9,641
-6,215
-2,689
0,953
4,728
8,647
12,724
16,969
21,394
26,012
30,831
35,847
41,055
46,443
51,995
57,695
63,521
69,441
75,425
81,445
87,475
93,504
99,52
105,503
111,435
117,294
123,065
128,752
134,363
139,899
145,366
150,774
156,139
161,503
166,896
172,324
177,793
183,282
188,76
194,203
199,582
204,852
209,963
214,845
219,411
223,596
227,327
230,515
233,07
234,873
235,819
235,84
234,871
232,863
229,794
225,647
220,418
214,14
206,845
198,572
189,402
179,393
168,625
157,21
145,262
132,916
120,32
107,594
94,873
82,303
70
58,061
46,581
35,615
25,23
15,511
6,496
-1,776
-9,28
-16,03
-22,037
-27,319
-31,927
-35,916
-39,357
-42,355
-44,987
-47,305
-49,365
-51,203
-52,869
-54,437
-55,949
-57,434
-58,918
-60,409
-61,916
-63,46
-65,028
-66,592
-68,116
-69,539
-70,823
-71,955
-72,915
-73,697
-74,289
-74,666
-74,823
-74,772
-74,521
-74,079
-73,456
-72,653
-71,689
-70,595
-69,404
-68,155
-66,881
-65,597
-64,322
-63,073
-61,862
-60,702
-59,599
-58,551
-57,558
-56,623
-55,748
-54,937
-54,192
-53,506
-52,874
-52,291
-51,753
-51,258
-50,803
-50,383
-49,999
-49,649
-49,335
-49,057
-48,818
-48,615
-48,448
-48,316
-48,218
-48,151
-48,115
-48,108
-48,128
-48,175
-48,247
-48,346
-48,469
-48,618
-48,79
-48,987
-49,207
-49,45
-49,716
-50,005
-50,316
-50,65
-51,007
-51,385
-51,785
-52,207
-52,648
-53,11
-53,589
-54,086
-54,597
-55,122
-55,659
-56,206
-56,76
-57,321
-57,885
-58,452
-59,018
-59,582
-60,143
-60,697
-61,242
-61,777
-62,3
-62,808
-63,3
-63,775
-64,231
-64,667
-65,081
-65,474
-65,844
-66,192
-66,515
-66,816
-67,094
-67,349
-67,582
-67,794
-67,987
-68,162
-68,321
-68,466
-68,598
-68,721
-68,837
-68,947
-69,056
-69,164
-69,276
-69,394
-69,52
-69,658
-69,81
-69,978
-70,163
-70,369
-70,596
-70,845
-71,118
-71,415
-71,737
-72,084
-72,456
-72,851
-73,27
-73,711
-74,172
-74,652
-75,147
-75,656
-76,175
-76,7
-77,229
-77,758
-78,281
-78,795
-79,296
-79,777
-80,234
-80,661
-81,053
-81,404
-81,707
-81,958
-82,15
-82,278
-82,337
-82,322
-82,229
-82,053
-81,789
-81,436
-80,988
-80,443
-79,798
-79,052
-78,204
-77,252
-76,196
-75,038
-73,778
-72,418
-70,96
-69,408
-67,766
-66,037
-64,226
-62,339
-60,383
-58,365
-56,293
-54,177
-52,026
-49,852
-47,667
-45,484
-43,315
-41,173
-39,071
-37,021
-35,037
-33,13
-31,31
-29,591
-27,983
-26,5
-25,154
-23,956
-22,918
-22,048
-21,356
-20,851
-20,537
-20,417
-20,494
-20,769
-21,247
-21,936
-22,841
-23,962
-25,295
-26,832
-28,56
-30,463
-32,514
-34,68
-36,926
-39,219
-41,529
-43,833
-46,108
-48,326
-50,451
-52,442
-54,259
-55,872
-57,265
-58,422
-59,343
-60,039
-60,548
-60,928
-61,24
-61,529
-61,834
-62,191
-62,64
-63,23
-64,018
-65,042
-66,355
-68,029
-70,061
-72,398
-74,917
-77,379
-79,554
-81,246
-82,186
-82,085
-80,778
-78,193
-74,495
-70,093
-65,255
-60,147
-54,95
-49,826
-44,926
-40,251
-35,28
-29,091
-20,858
-9,793
4,762
23,477
47,204
76,491
111,274
150,922
194,284
239,915
285,834
329,061
367,051
397,774
420,171
435,032
441,427
437,089
419,584
385,402
334,144
269,042
195,387
121,814
57,413
8,441
-22,364
-37,452
-43,198
-45,237
-46,668
-47,816
-46,829
-42,989
-37,5
-32,015
-28,239
-26,819
-27,264
-28,908
-31,035
-32,901
-33,825
-33,43
-31,685
-28,81
-25,225
-21,306
-17,329
-13,621
-10,53
-8,254
-6,854
-6,28
-6,368
-6,974
-8
-9,322
-10,824
-12,397
-13,923
-15,299
-16,443
-17,285
-17,78
-17,903
-17,632
-16,96
-15,901
-14,479
-12,732
-10,697
-8,405
-5,881
-3,149
-0,24
2,809
5,958
9,168
12,414
15,682
18,963
22,251
25,547
28,86
32,205
35,605
39,079
42,641
46,305
50,081
53,986
58,038
62,25
66,632
71,194
75,943
80,888
86,044
91,413
96,991
102,77
108,736
114,874
121,17
127,597
134,119
140,702
147,312
153,926
160,538
167,132
173,691
180,194
186,616
192,945
199,187
205,339
211,394
217,349
223,199
228,965
234,694
240,414
246,143
251,871
257,55
263,143
268,615
273,921
279,01
283,813
288,235
292,207
295,686
298,615
300,941
302,572
303,375
303,246
302,107
299,912
296,668
292,381
287,054
280,724
273,45
265,306
256,394
246,781
236,494
225,589
214,131
202,233
190,058
177,757
165,464
153,296
141,328
129,637
118,297
107,351
96,817
86,71
77,033
67,823
59,159
51,091
43,655
36,847
30,616
24,907
19,658
14,812
10,328
6,171
2,31
-1,27
-4,566
-7,579
-10,31
-12,787
-15,068
-17,199
-19,218
-21,142
-22,961
-24,656
-26,197
-27,554
-28,703
-29,631
-30,333
-30,813
-31,089
-31,177
-31,097
-30,858
-30,457
-29,89
-29,159
-28,274
-27,252
-26,122
-24,915
-23,665
-22,405
-21,161
-19,953
-18,796
-17,7
-16,668
-15,704
-14,809
-13,989
-13,25
-12,598
-12,036
-11,565
-11,183
-10,886
-10,668
-10,523
-10,445
-10,429
-10,471
-10,568
-10,717
-10,918
-11,169
-11,469
-11,814
-12,202
-12,627
-13,087
-13,578
-14,093
-14,631
-15,186
-15,756
-16,337
-16,929
-17,528
-18,132
-18,741
-19,352
-19,964
-20,577
-21,191
-21,804
-22,417
-23,031
-23,645
-24,26
-24,878
-25,498
-26,121
-26,748
-27,378
-28,013
-28,653
-29,297
-29,945
-30,598
-31,255
-31,916
-32,583
-33,255
-33,932
-34,616
-35,306
-36,002
-36,704
-37,413
-38,127
-38,848
-39,574
-40,305
-41,041
-41,782
-42,527
-43,276
-44,028
-44,783
-45,541
-46,302
-47,065
-47,829
-48,596
-49,366
-50,14
-50,917
-51,699
-52,488
-53,283
-54,087
-54,9
-55,724
-56,559
-57,407
-58,269
-59,145
-60,038
-60,947
-61,874
-62,819
-63,783
-64,766
-65,768
-66,79
-67,832
-68,892
-69,971
-71,067
-72,181
-73,312
-74,457
-75,617
-76,788
-77,969
-79,157
-80,349
-81,542
-82,732
-83,915
-85,087
-86,244
-87,381
-88,493
-89,574
-90,621
-91,626
-92,585
-93,491
-94,339
-95,123
-95,837
-96,476
-97,034
-97,507
-97,889
-98,177
-98,366
-98,452
-98,432
-98,302
-98,059
-97,702
-97,228
-96,635
-95,925
-95,096
-94,15
-93,088
-91,912
-90,626
-89,234
-87,739
-86,148
-84,467
-82,702
-80,862
-78,955
-76,991
-74,982
-72,938
-70,873
-68,8
-66,734
-64,687
-62,674
-60,711
-58,811
-56,988
-55,254
-53,624
-52,109
-50,725
-49,484
-48,398
-47,48
-46,742
-46,195
-45,849
-45,715
-45,801
-46,112
-46,65
-47,419
-48,423
-49,67
-51,163
-52,897
-54,866
-57,059
-59,462
-62,058
-64,823
-67,717
-70,699
-73,728
-76,769
-79,793
-82,771
-85,67
-88,45
-91,067
-93,484
-95,681
-97,644
-99,366
-100,845
-102,083
-103,108
-103,987
-104,795
-105,603
-106,462
-107,397
-108,426
-109,59
-110,941
-112,524
-114,381
-116,523
-118,92
-121,57
-124,479
-127,573
-130,703
-133,588
-135,817
-137,041
-136,989
-135,367
-131,971
-126,749
-119,745
-111,314
-102,068
-92,529
-83,22
-74,634
-66,879
-59,682
-52,56
-44,576
-34,446
-20,869
-2,468
22,092
53,016
89,164
129,782
173,976
221,086
271,499
321,974
366,478
399,489
414,822
411,449
393,947
365,427
329,556
287,841
237,341
179,685
119,739
62,69
16,617
-15,423
-36,608
-50,036
-59,989
-68,543
-73,825
-75,284
-73,62
-70,236
-67,464
-66,409
-66,972
-68,761
-71,257
-74,017
-76,459
-77,888
-77,868
-76,321
-73,521
-69,911
-65,859
-61,665
-57,66
-54,193
-51,497
-49,667
-48,667
-48,37
-48,652
-49,416
-50,559
-51,968
-53,548
-55,199
-56,815
-58,305
-59,568
-60,524
-61,127
-61,342
-61,151
-60,55
-59,551
-58,18
-56,474
-54,47
-52,193
-49,671
-46,925
-43,984
-40,888
-37,674
-34,382
-31,035
-27,649
-24,234
-20,796
-17,331
-13,831
-10,278
-6,649
-2,925
0,907
4,861
8,952
13,193
17,599
22,178
26,937
31,882
37,018
42,35
47,885
53,624
59,557
65,675
71,966
78,412
84,992
91,674
98,416
105,184
111,953
118,705
125,43
132,115
138,742
145,295
151,76
158,125
164,382
170,519
176,513
182,363
188,072
193,664
199,185
204,648
210,044
215,354
220,543
225,572
230,408
235,001
239,283
243,202
246,703
249,742
252,289
254,281
255,638
256,263
256,043
254,91
252,833
249,793
245,785
240,827
234,935
228,153
220,559
212,203
203,136
193,411
183,084
172,254
161,051
149,628
138,138
126,7
115,406
104,339
93,578
83,181
73,203
63,678
54,621
46,078
38,098
30,714
23,947
17,776
12,144
6,977
2,207
-2,214
-6,324
-10,153
-13,733
-17,08
-20,212
-23,134
-25,856
-28,414
-30,848
-33,188
-35,451
-37,627
-39,688
-41,592
-43,31
-44,819
-46,102
-47,156
-47,978
-48,575
-48,96
-49,153
-49,163
-48,989
-48,63
-48,084
-47,362
-46,484
-45,478
-44,379
-43,217
-42,021
-40,817
-39,625
-38,459
-37,331
-36,245
-35,203
-34,21
-33,272
-32,397
-31,592
-30,863
-30,21
-29,631
-29,125
-28,687
-28,309
-27,988
-27,718
-27,495
-27,316
-27,178
-27,082
-27,024
-27,005
-27,02
-27,066
-27,139
-27,237
-27,354
-27,488
-27,635
-27,792
-27,958
-28,131
-28,308
-28,49
-28,674
-28,86
-29,047
-29,233
-29,42
-29,607
-29,794
-29,982
-30,173
-30,367
-30,566
-30,772
-30,986
-31,211
-31,447
-31,698
-31,963
-32,246
-32,548
-32,869
-33,211
-33,574
-33,96
-34,369
-34,802
-35,258
-35,738
-36,242
-36,77
-37,32
-37,892
-38,485
-39,098
-39,729
-40,376
-41,039
-41,716
-42,405
-43,103
-43,81
-44,524
-45,241
-45,961
-46,681
-47,4
-48,115
-48,825
-49,528
-50,222
-50,906
-51,579
-52,24
-52,887
-53,519
-54,137
-54,74
-55,326
-55,897
-56,452
-56,991
-57,515
-58,023
-58,516
-58,994
-59,458
-59,908
-60,344
-60,767
-61,178
-61,577
-61,965
-62,341
-62,708
-63,064
-63,411
-63,749
-64,079
-64,401
-64,715
-65,022
-65,321
-65,614
-65,9
-66,179
-66,452
-66,719
-66,979
-67,233
-67,48
-67,721
-67,956
-68,185
-68,408
-68,625
-68,837
-69,044
-69,247
-69,446
-69,641
-69,833
-70,024
-70,212
-70,399
-70,585
-70,77
-70,955
-71,139
-71,323
-71,507
-71,689
-71,871
-72,05
-72,226
-72,399
-72,567
-72,729
-72,884
-73,029
-73,162
-73,282
-73,385
-73,469
-73,531
-73,566
-73,572
-73,545
-73,481
-73,375
-73,224
-73,024
-72,769
-72,456
-72,08
-71,638
-71,126
-70,54
-69,877
-69,135
-68,312
-67,406
-66,416
-65,342
-64,184
-62,943
-61,621
-60,219
-58,742
-57,192
-55,575
-53,895
-52,16
-50,378
-48,558
-46,71
-44,846
-42,978
-41,117
-39,277
-37,47
-35,711
-34,01
-32,38
-30,835
-29,388
-28,053
-26,846
-25,779
-24,866
-24,118
-23,546
-23,161
-22,972
-22,982
-23,195
-23,614
-24,245
-25,102
-26,191
-27,515
-29,071
-30,852
-32,846
-35,04
-37,412
-39,927
-42,551
-45,25
-47,991
-50,752
-53,507
-56,226
-58,867
-61,38
-63,717
-65,848
-67,752
-69,415
-70,836
-72,018
-72,991
-73,812
-74,533
-75,212
-75,903
-76,643
-77,491
-78,504
-79,73
-81,252
-83,166
-85,491
-88,194
-91,162
-94,172
-97,041
-99,616
-101,653
-102,874
-103,082
-102,167
-100,287
-97,842
-95,11
-92,219
-89,237
-86,188
-83,11
-79,996
-76,389
-71,378
-64,045
-53,573
-39,439
-21,199
1,836
30,348
64,721
104,328
147,393
192,118
236,912
281,068
325,467
369,86
411,773
447,051
468,677
470,135
449,177
405,964
343,502
267,953
185,066
102,095
29,203
-26,188
-61,019
-76,021
-78,119
-74,982
-69,073
-62,57
-56,533
-50,593
-48,506
-51,648
-57,523
-64,728
-70,058
-71,937
-72,376
-72,166
-71,723
-71,241
-69,653
-66,705
-62,94
-58,767
-54,702
-51,146
-48,265
-46,18
-44,963
-44,553
-44,794
-45,549
-46,713
-48,186
-49,88
-51,695
-53,511
-55,205
-56,669
-57,826
-58,619
-59,014
-58,992
-58,542
-57,669
-56,402
-54,783
-52,849
-50,633
-48,162
-45,455
-42,549
-39,485
-36,307
-33,064
-29,787
-26,494
-23,201
-19,915
-16,635
-13,358
-10,064
-6,729
-3,335
0,133
3,689
7,343
11,114
15,015
19,058
23,256
27,618
32,157
36,888
41,821
46,957
52,293
57,82
63,527
69,401
75,42
81,55
87,761
94,02
100,305
106,61
112,923
119,23
125,517
131,761
137,958
144,119
150,245
156,333
162,384
168,394
174,384
180,399
186,471
192,618
198,837
205,091
211,346
217,572
223,718
229,726
235,513
240,966
245,994
250,533
254,509
257,861
260,499
262,302
263,179
263,063
261,917
259,74
256,533
252,299
247,082
240,949
233,998
226,366
218,158
209,453
200,337
190,89
181,213
171,436
161,662
151,966
142,417
133,062
123,947
115,125
106,612
98,399
90,459
82,744
75,229
67,911
60,787
53,853
47,102
40,512
34,079
27,814
21,726
15,823
10,111
4,588
-0,73
-5,816
-10,639
-15,165
-19,371
-23,25
-26,794
-29,998
-32,863
-35,39
-37,588
-39,477
-41,07
-42,38
-43,421
-44,204
-44,744
-45,062
-45,179
-45,116
-44,891
-44,522
-44,027
-43,421
-42,722
-41,942
-41,092
-40,183
-39,226
-38,233
-37,214
-36,182
-35,147
-34,118
-33,104
-32,116
-31,161
-30,245
-29,375
-28,554
-27,789
-27,081
-26,434
-25,85
-25,331
-24,878
-24,491
-24,171
-23,918
-23,732
-23,611
-23,554
-23,56
-23,628
-23,756
-23,942
-24,185
-24,482
-24,832
-25,233
-25,684
-26,18
-26,721
-27,303
-27,924
-28,582
-29,274
-29,996
-30,745
-31,52
-32,316
-33,131
-33,963
-34,808
-35,664
-36,528
-37,398
-38,27
-39,142
-40,012
-40,876
-41,732
-42,577
-43,408
-44,224
-45,02
-45,796
-46,548
-47,273
-47,971
-48,638
-49,272
-49,872
-50,437
-50,964
-51,453
-51,902
-52,313
-52,684
-53,016
-53,309
-53,565
-53,783
-53,967
-54,117
-54,235
-54,323
-54,384
-54,42
-54,434
-54,429
-54,406
-54,371
-54,325
-54,273
-54,217
-54,161
-54,108
-54,061
-54,024
-53,999
-53,99
-53,999
-54,029
-54,081
-54,159
-54,263
-54,395
-54,554
-54,74
-54,952
-55,188
-55,449
-55,734
-56,041
-56,367
-56,706
-57,054
-57,414
-57,777
-58,128
-58,455
-58,74
-58,978
-59,178
-59,336
-59,43
-59,461
-59,462
-59,452
-59,456
-59,474
-59,452
-59,369
-59,267
-59,097
-58,674
-57,946
-56,967
-55,711
-54,353
-52,587
-49,292
-44,621
-39,637
-35,952
-36,734
-42,037
-48,631
-53,383
-51,83
-43,359
-32,28
-21,946
-15,878
-14,97
-16,042
-17,064
-16,755
-14,621
-11,97
-9,469
-7,075
-4,856
-2,641
-0,378
1,739
3,635
5,325
6,79
8,006
8,968
9,671
10,12
10,335
10,324
10,07
9,566
8,809
7,79
6,504
4,955
3,144
1,079
-1,224
-3,747
-6,461
-9,328
-12,309
-15,367
-18,467
-21,589
-24,706
-27,784
-30,781
-33,647
-36,338
-38,829
-41,106
-43,149
-44,948
-46,512
-47,878
-49,116
-50,293
-51,444
-52,597
-53,772
-55,008
-56,367
-57,901
-59,656
-61,68
-64,025
-66,69
-69,626
-72,689
-75,622
-78,152
-80,013
-80,898
-80,472
-78,541
-75,143
-70,537
-65,243
-59,712
-54,173
-49,043
-44,859
-41,826
-39,776
-37,442
-33,101
-25,943
-14,986
-0,396
17,875
42,284
73,225
112,046
160,365
215,234
275,538
337,165
391,568
433,825
458,327
462,881
452,044
429,059
396,683
357,301
309,451
253,184
192,784
132,389
77,939
34,926
2,95
-19,117
-33,171
-42,472
-46,976
-46,907
-43,864
-38,901
-34,265
-31,653
-31,203
-32,805
-35,951
-39,94
-44,205
-48,056
-50,716
-51,78
-51,272
-49,454
-46,741
-43,553
-40,216
-37,065
-34,456
-32,587
-31,509
-31,185
-31,48
-32,266
-33,449
-34,921
-36,579
-38,353
-40,155
-41,895
-43,49
-44,847
-45,895
-46,598
-46,921
-46,845
-46,369
-45,501
-44,27
-42,716
-40,871
-38,762
-36,413
-33,844
-31,086
-28,176
-25,148
-22,041
-18,878
-15,671
-12,431
-9,159
-5,851
-2,499
0,915
4,411
8,005
11,71
15,535
19,49
23,586
27,833
32,241
36,818
41,571
46,504
51,62
56,919
62,398
68,052
73,876
79,857
85,987
92,253
98,643
105,145
111,742
118,417
125,152
131,927
138,72
145,508
152,265
158,966
165,583
172,088
178,453
184,648
190,645
196,415
201,928
207,157
212,072
216,648
220,858
224,677
228,082
231,051
233,563
235,6
237,146
238,187
238,711
238,708
238,173
237,1
235,489
233,341
230,66
227,452
223,728
219,497
214,777
209,583
203,934
197,854
191,366
184,495
177,269
169,718
161,872
153,762
145,421
136,882
128,179
119,347
110,418
101,429
92,412
83,401
74,429
65,529
56,731
48,065
39,56
31,243
23,138
15,27
7,658
0,324
-6,717
-13,448
-19,858
-25,935
-31,671
-37,06
-42,098
-46,782
-51,114
-55,094
-58,727
-62,019
-64,976
-67,607
-69,923
-71,935
-73,657
-75,1
-76,281
-77,215
-77,918
-78,407
-78,7
-78,814
-78,767
-78,577
-78,261
-77,838
-77,323
-76,733
-76,083
-75,39
-74,666
-73,925
-73,178
-72,438
-71,714
-71,016
-70,351
-69,726
-69,148
-68,622
-68,153
-67,743
-67,395
-67,111
-66,892
-66,738
-66,648
-66,622
-66,658
-66,753
-66,904
-67,109
-67,362
-67,66
-67,999
-68,373
-68,778
-69,208
-69,66
-70,127
-70,607
-71,094
-71,585
-72,077
-72,566
-73,049
-73,525
-73,991
-74,446
-74,888
-75,316
-75,731
-76,13
-76,513
-76,881
-77,234
-77,571
-77,892
-78,199
-78,491
-78,769
-79,035
-79,289
-79,531
-79,764
-79,988
-80,206
-80,417
-80,623
-80,827
-81,028
-81,228
-81,427
-81,626
-81,826
-82,025
-82,223
-82,42
-82,615
-82,806
-82,992
-83,172
-83,344
-83,506
-83,657
-83,795
-83,919
-84,027
-84,119
-84,193
-84,247
-84,282
-84,295
-84,288
-84,258
-84,205
-84,13
-84,032
-83,91
-83,765
-83,597
-83,405
-83,19
-82,952
-82,693
-82,412
-82,112
-81,794
-81,459
-81,111
-80,75
-80,381
-80,004
-79,624
-79,243
-78,864
-78,489
-78,121
-77,763
-77,418
-77,087
-76,774
-76,479
-76,205
-75,954
-75,725
-75,52
-75,341
-75,186
-75,057
-74,953
-74,875
-74,822
-74,794
-74,79
-74,808
-74,848
-74,908
-74,986
-75,08
-75,187
-75,304
-75,428
-75,556
-75,684
-75,808
-75,923
-76,025
-76,11
-76,173
-76,208
-76,21
-76,175
-76,096
-75,97
-75,791
-75,554
-75,255
-74,89
-74,454
-73,945
-73,358
-72,69
-71,937
-71,098
-70,169
-69,149
-68,036
-66,829
-65,526
-64,129
-62,637
-61,051
-59,372
-57,603
-55,745
-53,802
-51,779
-49,681
-47,513
-45,283
-42,998
-40,667
-38,302
-35,912
-33,51
-31,106
-28,715
-26,348
-24,02
-21,742
-19,527
-17,388
-15,338
-13,389
-11,558
-9,855
-8,295
-6,891
-5,657
-4,606
-3,749
-3,095
-2,652
-2,427
-2,427
-2,659
-3,135
-3,86
-4,835
-6,061
-7,534
-9,244
-11,177
-13,311
-15,611
-18,045
-20,582
-23,192
-25,853
-28,54
-31,223
-33,871
-36,446
-38,912
-41,242
-43,409
-45,393
-47,195
-48,82
-50,291
-51,669
-53,009
-54,366
-55,784
-57,273
-58,848
-60,544
-62,399
-64,469
-66,797
-69,399
-72,3
-75,553
-79,128
-82,921
-86,735
-90,212
-93,027
-94,95
-95,725
-95,07
-92,834
-89,036
-83,907
-77,987
-71,773
-65,473
-59,28
-53,486
-48,222
-43,292
-38,073
-31,345
-21,839
-8,813
8,499
31,166
60,1
95,865
137,742
183,46
230,747
278,196
325,879
374,098
420,83
461,448
488,43
495,349
480,851
447,19
400,875
347,072
285,814
217,768
144,052
70,395
8,69
-33,493
-54,205
-57,804
-54,911
-52,454
-52,568
-54,66
-55,501
-54,326
-52,504
-51,241
-51,842
-54,325
-57,785
-61,446
-64,443
-66,033
-65,936
-64,19
-61,063
-57,038
-52,589
-48,086
-43,897
-40,377
-37,723
-35,993
-35,161
-35,091
-35,643
-36,714
-38,173
-39,888
-41,754
-43,658
-45,491
-47,162
-48,567
-49,627
-50,298
-50,547
-50,364
-49,758
-48,743
-47,347
-45,612
-43,573
-41,265
-38,72
-35,965
-33,039
-29,984
-26,842
-23,656
-20,454
-17,252
-14,064
-10,891
-7,728
-4,566
-1,387
1,832
5,109
8,459
11,897
15,436
19,091
22,878
26,808
30,894
35,145
39,574
44,196
49,019
54,04
59,256
64,656
70,225
75,949
81,803
87,754
93,769
99,815
105,873
111,937
117,997
124,037
130,044
135,994
141,877
147,704
153,474
159,181
164,821
170,388
175,899
181,399
186,917
192,468
198,04
203,588
209,072
214,461
219,709
224,765
229,556
233,98
237,963
241,465
244,437
246,835
248,587
249,571
249,696
248,902
247,153
244,453
240,8
236,17
230,573
224,051
216,667
208,524
199,685
190,159
179,977
169,178
157,83
146,065
133,993
121,694
109,25
96,735
84,239
71,889
59,794
48,015
36,596
25,562
14,963
4,912
-4,502
-13,215
-21,186
-28,42
-34,922
-40,673
-45,678
-49,968
-53,599
-56,661
-59,253
-61,427
-63,229
-64,702
-65,897
-66,91
-67,82
-68,682
-69,535
-70,405
-71,313
-72,293
-73,367
-74,519
-75,724
-76,936
-78,095
-79,177
-80,161
-81,028
-81,761
-82,334
-82,722
-82,925
-82,95
-82,803
-82,49
-82,012
-81,372
-80,592
-79,701
-78,728
-77,709
-76,669
-75,624
-74,592
-73,585
-72,614
-71,686
-70,8
-69,95
-69,132
-68,345
-67,589
-66,863
-66,164
-65,486
-64,825
-64,175
-63,532
-62,894
-62,259
-61,626
-60,995
-60,366
-59,744
-59,131
-58,531
-57,945
-57,376
-56,824
-56,291
-55,779
-55,289
-54,821
-54,378
-53,961
-53,572
-53,213
-52,888
-52,599
-52,348
-52,137
-51,969
-51,846
-51,771
-51,743
-51,766
-51,84
-51,966
-52,144
-52,374
-52,656
-52,988
-53,371
-53,801
-54,277
-54,796
-55,356
-55,954
-56,587
-57,252
-57,946
-58,665
-59,406
-60,165
-60,94
-61,726
-62,52
-63,318
-64,116
-64,911
-65,698
-66,475
-67,236
-67,979
-68,699
-69,393
-70,058
-70,689
-71,284
-71,839
-72,351
-72,817
-73,236
-73,603
-73,916
-74,174
-74,374
-74,514
-74,591
-74,604
-74,55
-74,426
-74,232
-73,966
-73,624
-73,207
-72,713
-72,139
-71,485
-70,749
-69,93
-69,027
-68,039
-66,966
-65,808
-64,564
-63,237
-61,827
-60,335
-58,763
-57,115
-55,393
-53,601
-51,743
-49,822
-47,845
-45,815
-43,741
-41,629
-39,485
-37,32
-35,144
-32,965
-30,797
-28,649
-26,534
-24,464
-22,45
-20,503
-18,635
-16,856
-15,177
-13,608
-12,162
-10,848
-9,68
-8,667
-7,818
-7,142
-6,647
-6,339
-6,218
-6,286
-6,542
-6,991
-7,639
-8,491
-9,546
-10,799
-12,242
-13,865
-15,649
-17,57
-19,59
-21,674
-23,785
-25,894
-27,979
-30,016
-31,976
-33,821
-35,507
-36,997
-38,268
-39,306
-40,094
-40,624
-40,911
-40,993
-40,945
-40,831
-40,689
-40,55
-40,445
-40,42
-40,541
-40,874
-41,463
-42,352
-43,602
-45,211
-47,125
-49,206
-51,167
-52,686
-53,488
-53,28
-51,762
-48,837
-44,574
-39,226
-33,413
-27,718
-22,49
-18,108
-14,866
-12,674
-11,116
-9,329
-5,77
1,077
12,374
29,311
52,844
83,436
121,07
164,896
213,018
263,116
312,83
359,494
400,318
432,588
453,948
462,669
458,466
442,511
415,423
378,047
331,165
274,521
211,499
148,317
91,003
46,588
17,151
-0,895
-11,057
-17,761
-22,995
-25,136
-24,074
-20,487
-15,741
-12,209
-10,854
-11,536
-13,916
-17,32
-21,097
-24,634
-27,182
-28,283
-27,924
-26,365
-24,014
-21,232
-18,301
-15,529
-13,25
-11,676
-10,874
-10,789
-11,276
-12,202
-13,467
-14,975
-16,632
-18,353
-20,044
-21,605
-22,947
-24,003
-24,73
-25,103
-25,104
-24,719
-23,951
-22,823
-21,378
-19,652
-17,676
-15,474
-13,062
-10,47
-7,734
-4,895
-1,994
0,94
3,891
6,848
9,805
12,764
15,732
18,726
21,77
24,885
28,088
31,394
34,815
38,361
42,047
45,886
49,894
54,089
58,48
63,071
67,864
72,853
78,028
83,379
88,88
94,498
100,204
105,965
111,762
117,588
123,432
129,282
135,124
140,934
146,705
152,447
158,159
163,838
169,483
175,087
180,67
186,273
191,926
197,648
203,433
209,235
215,016
220,734
226,338
231,781
236,985
241,838
246,254
250,169
253,518
256,253
258,284
259,477
259,73
258,964
257,135
254,253
250,328
245,37
239,414
232,507
224,738
216,241
207,112
197,415
187,215
176,557
165,545
154,344
143,087
131,883
120,816
109,924
99,259
88,884
78,83
69,115
59,727
50,617
41,777
33,241
25,041
17,227
9,797
2,686
-4,142
-10,705
-17,01
-23,042
-28,804
-34,318
-39,582
-44,579
-49,282
-53,648
-57,668
-61,366
-64,766
-67,906
-70,794
-73,397
-75,703
-77,718
-79,444
-80,9
-82,091
-83,009
-83,663
-84,084
-84,299
-84,342
-84,231
-83,97
-83,564
-83,018
-82,346
-81,58
-80,744
-79,852
-78,924
-77,975
-77,022
-76,091
-75,195
-74,338
-73,523
-72,754
-72,037
-71,382
-70,796
-70,281
-69,84
-69,471
-69,173
-68,946
-68,785
-68,688
-68,649
-68,662
-68,721
-68,824
-68,967
-69,147
-69,358
-69,596
-69,853
-70,128
-70,414
-70,705
-70,998
-71,286
-71,565
-71,832
-72,083
-72,314
-72,522
-72,705
-72,861
-72,988
-73,085
-73,151
-73,186
-73,19
-73,164
-73,109
-73,027
-72,919
-72,788
-72,636
-72,466
-72,28
-72,081
-71,873
-71,658
-71,439
-71,22
-71,003
-70,791
-70,586
-70,392
-70,21
-70,043
-69,894
-69,763
-69,652
-69,563
-69,497
-69,455
-69,437
-69,443
-69,473
-69,526
-69,602
-69,701
-69,82
-69,959
-70,115
-70,289
-70,477
-70,677
-70,889
-71,109
-71,337
-71,569
-71,803
-72,039
-72,273
-72,504
-72,731
-72,953
-73,167
-73,372
-73,569
-73,755
-73,931
-74,094
-74,246
-74,385
-74,512
-74,626
-74,727
-74,817
-74,894
-74,96
-75,015
-75,06
-75,094
-75,119
-75,135
-75,141
-75,138
-75,127
-75,107
-75,078
-75,04
-74,993
-74,935
-74,866
-74,785
-74,689
-74,578
-74,448
-74,298
-74,124
-73,924
-73,695
-73,433
-73,136
-72,8
-72,422
-71,998
-71,526
-71,001
-70,42
-69,781
-69,08
-68,315
-67,483
-66,583
-65,613
-64,572
-63,46
-62,275
-61,019
-59,692
-58,296
-56,833
-55,305
-53,716
-52,071
-50,374
-48,632
-46,853
-45,046
-43,221
-41,387
-39,554
-37,736
-35,943
-34,187
-32,479
-30,831
-29,254
-27,759
-26,361
-25,07
-23,901
-22,866
-21,975
-21,242
-20,677
-20,292
-20,097
-20,098
-20,301
-20,712
-21,339
-22,192
-23,28
-24,601
-26,152
-27,925
-29,907
-32,085
-34,435
-36,92
-39,503
-42,146
-44,814
-47,479
-50,113
-52,681
-55,146
-57,464
-59,596
-61,508
-63,181
-64,606
-65,786
-66,74
-67,509
-68,149
-68,75
-69,434
-70,288
-71,373
-72,738
-74,387
-76,332
-78,661
-81,355
-84,24
-87,282
-90,518
-93,856
-97,406
-100,79
-102,788
-103,239
-102,773
-102,636
-105,446
-111,434
-117,78
-120,658
-115,544
-100,872
-79,699
-57,493
-39,307
-27,878
-22,484
-18,855
-13,547
-4,37
10,249
29,308
52,468
80,152
111,986
148,25
188,657
231,412
273,97
313,437
347,205
374,889
397,552
415,509
427,035
426,256
406,337
362,971
296,655
215,961
132,81
58,94
3,191
-33,942
-56,711
-70,766
-81,903
-90,762
-95,024
-94,298
-88,497
-80,426
-74,768
-71,821
-71,119
-71,414
-70,208
-68,542
-67,682
-67,869
-69,679
-72,08
-73,863
-75,001
-75,567
-75,572
-75,646
-76,058
-76,077
-75,796
-74,336
-70,399
-65,739
-61,464
-59,269
-61,589
-66,4
-71,804
-76,314
-77,683
-77,188
-76,214
-75,086
-74,662
-74,382
-73,587
-72,444
-70,926
-69,135
-67,233
-65,137
-62,783
-60,21
-57,456
-54,556
-51,553
-48,49
-45,392
-42,282
-39,182
-36,089
-32,991
-29,879
-26,732
-23,526
-20,242
-16,865
-13,382
-9,783
-6,052
-2,168
1,894
6,15
10,611
15,281
20,162
25,25
30,538
36,006
41,63
47,38
53,234
59,172
65,181
71,248
77,36
83,501
89,651
95,801
101,955
108,122
114,313
120,546
126,836
133,21
139,709
146,36
153,18
160,171
167,317
174,591
181,956
189,37
196,784
204,127
211,307
218,22
224,746
230,772
236,19
240,881
244,717
247,586
249,401
250,096
249,638
248,009
245,208
241,254
236,181
230,053
222,961
215,015
206,35
197,092
187,359
177,278
166,985
156,6
146,232
135,968
125,87
115,997
106,394
97,098
88,135
79,51
71,212
63,218
55,489
47,996
40,723
33,648
26,751
20,021
13,448
7,038
0,808
-5,226
-11,053
-16,657
-22,024
-27,132
-31,958
-36,474
-40,653
-44,474
-47,928
-51,006
-53,707
-56,035
-57,995
-59,604
-60,883
-61,852
-62,529
-62,935
-63,089
-63,012
-62,728
-62,26
-61,632
-60,867
-59,985
-59,005
-57,947
-56,829
-55,665
-54,471
-53,259
-52,04
-50,828
-49,635
-48,472
-47,35
-46,276
-45,26
-44,309
-43,427
-42,618
-41,886
-41,232
-40,655
-40,156
-39,733
-39,384
-39,105
-38,894
-38,745
-38,656
-38,62
-38,633
-38,688
-38,782
-38,907
-39,06
-39,234
-39,425
-39,628
-39,839
-40,052
-40,265
-40,474
-40,674
-40,864
-41,039
-41,199
-41,34
-41,462
-41,564
-41,645
-41,704
-41,743
-41,76
-41,758
-41,737
-41,698
-41,643
-41,573
-41,49
-41,396
-41,292
-41,181
-41,064
-40,942
-40,818
-40,693
-40,567
-40,443
-40,32
-40,2
-40,083
-39,969
-39,858
-39,749
-39,642
-39,537
-39,431
-39,324
-39,215
-39,101
-38,981
-38,853
-38,716
-38,568
-38,407
-38,232
-38,041
-37,834
-37,609
-37,365
-37,102
-36,819
-36,516
-36,192
-35,848
-35,485
-35,102
-34,701
-34,284
-33,85
-33,402
-32,942
-32,473
-31,995
-31,512
-31,028
-30,544
-30,064
-29,593
-29,132
-28,687
-28,259
-27,854
-27,473
-27,121
-26,8
-26,512
-26,26
-26,046
-25,872
-25,739
-25,647
-25,597
-25,589
-25,622
-25,697
-25,81
-25,961
-26,147
-26,365
-26,613
-26,888
-27,186
-27,502
-27,833
-28,172
-28,516
-28,858
-29,193
-29,514
-29,814
-30,089
-30,33
-30,532
-30,69
-30,796
-30,846
-30,834
-30,755
-30,604
-30,379
-30,074
-29,688
-29,217
-28,662
-28,021
-27,293
-26,48
-25,582
-24,603
-23,544
-22,409
-21,202
-19,929
-18,595
-17,207
-15,773
-14,3
-12,798
-11,279
-9,752
-8,232
-6,731
-5,262
-3,84
-2,477
-1,187
0,017
1,123
2,12
2,996
3,74
4,34
4,785
5,064
5,167
5,087
4,815
4,343
3,668
2,788
1,703
0,412
-1,085
-2,797
-4,728
-6,873
-9,227
-11,78
-14,517
-17,42
-20,461
-23,601
-26,802
-30,028
-33,244
-36,428
-39,554
-42,591
-45,499
-48,234
-50,752
-53,032
-55,063
-56,829
-58,328
-59,577
-60,614
-61,514
-62,344
-63,146
-63,959
-64,811
-65,741
-66,811
-68,081
-69,595
-71,407
-73,569
-76,077
-78,872
-81,82
-84,669
-87,148
-89,01
-89,98
-89,761
-88,188
-85,291
-81,279
-76,601
-71,694
-66,762
-61,998
-57,71
-54,001
-50,607
-46,889
-41,716
-33,865
-22,553
-7,063
13,546
39,966
72,434
110,595
153,153
198,301
244,392
289,574
331,372
367,155
394,339
410,66
415,365
408,965
391,819
364,165
325,314
274,105
211,981
143,804
77,851
23,098
-15,275
-37,753
-50,076
-58,504
-66,601
-74,053
-77,878
-77,344
-73,448
-69,102
-67,551
-67,789
-68,489
-67,749
-63,159
-56,675
-49,825
-43,704
-40,716
-39,952
-40,321
-41,568
-42,43
-43,111
-44,245
-45,586
-46,85
-47,694
-47,795
-47,275
-46,613
-46,069
-45,692
-45,561
-45,734
-46,194
-46,913
-47,749
-48,404
-48,712
-48,623
-48,092
-47,144
-45,814
-44,113
-42,091
-39,828
-37,368
-34,741
-31,973
-29,073
-26,068
-23,002
-19,904
-16,798
-13,7
-10,61
-7,528
-4,449
-1,354
1,778
4,966
8,227
11,577
15,027
18,591
22,281
26,111
30,095
34,251
38,598
43,149
47,908
52,874
58,044
63,407
68,948
74,648
80,477
86,411
92,426
98,501
104,62
110,766
116,924
123,075
129,196
135,274
141,308
147,304
153,276
159,242
165,221
171,244
177,351
183,574
189,926
196,41
203,021
209,739
216,532
223,367
230,208
237,004
243,693
250,188
256,376
262,14
267,362
271,914
275,658
278,469
280,241
280,889
280,354
278,602
275,626
271,422
265,993
259,36
251,542
242,612
232,692
221,909
210,397
198,31
185,81
173,071
160,272
147,562
135,06
122,865
111,041
99,668
88,827
78,593
69,051
60,239
52,143
44,749
38,04
31,97
26,488
21,513
16,932
12,665
8,665
4,896
1,346
-2,013
-5,226
-8,334
-11,386
-14,411
-17,411
-20,392
-23,364
-26,315
-29,23
-32,064
-34,746
-37,231
-39,504
-41,552
-43,385
-45,002
-46,391
-47,553
-48,487
-49,197
-49,694
-49,985
-50,073
-49,972
-49,706
-49,31
-48,831
-48,307
-47,761
-47,213
-46,677
-46,166
-45,695
-45,272
-44,897
-44,575
-44,311
-44,11
-43,98
-43,923
-43,939
-44,024
-44,17
-44,373
-44,627
-44,93
-45,276
-45,664
-46,089
-46,55
-47,049
-47,584
-48,153
-48,752
-49,379
-50,028
-50,696
-51,379
-52,073
-52,773
-53,476
-54,177
-54,876
-55,569
-56,252
-56,925
-57,585
-58,231
-58,86
-59,473
-60,067
-60,643
-61,201
-61,74
-62,261
-62,764
-63,25
-63,718
-64,169
-64,603
-65,021
-65,422
-65,808
-66,176
-66,529
-66,866
-67,187
-67,493
-67,784
-68,061
-68,325
-68,575
-68,814
-69,041
-69,257
-69,464
-69,66
-69,848
-70,026
-70,196
-70,359
-70,514
-70,661
-70,802
-70,937
-71,067
-71,192
-71,314
-71,433
-71,55
-71,668
-71,787
-71,91
-72,038
-72,174
-72,319
-72,476
-72,647
-72,834
-73,04
-73,266
-73,515
-73,788
-74,087
-74,414
-74,768
-75,151
-75,565
-76,008
-76,482
-76,986
-77,519
-78,081
-78,67
-79,285
-79,925
-80,585
-81,264
-81,959
-82,665
-83,379
-84,097
-84,812
-85,521
-86,217
-86,894
-87,546
-88,165
-88,744
-89,275
-89,751
-90,164
-90,507
-90,772
-90,952
-91,039
-91,028
-90,912
-90,684
-90,34
-89,875
-89,283
-88,562
-87,708
-86,72
-85,598
-84,339
-82,945
-81,417
-79,757
-77,97
-76,059
-74,03
-71,887
-69,639
-67,294
-64,861
-62,35
-59,774
-57,145
-54,478
-51,79
-49,096
-46,414
-43,76
-41,153
-38,609
-36,145
-33,777
-31,518
-29,385
-27,392
-25,555
-23,89
-22,41
-21,13
-20,062
-19,213
-18,593
-18,206
-18,053
-18,133
-18,45
-19,008
-19,817
-20,884
-22,204
-23,775
-25,588
-27,626
-29,871
-32,291
-34,839
-37,483
-40,188
-42,927
-45,689
-48,435
-51,118
-53,695
-56,108
-58,314
-60,306
-62,039
-63,461
-64,624
-65,569
-66,371
-67,156
-67,917
-68,606
-69,313
-70,101
-70,903
-71,711
-72,453
-73,042
-73,7
-74,604
-75,642
-76,674
-77,67
-78,557
-79,369
-80,095
-80,307
-79,672
-78,32
-76,551
-74,565
-72,476
-70,135
-67,33
-64,251
-60,99
-57,025
-51,466
-43,399
-31,974
-16,774
2,394
26,143
54,984
88,733
126,721
167,816
210,543
253,766
296,236
335,877
370,533
398,244
417,136
426,037
424,106
410,805
386,889
353,908
313,795
267,103
212,752
151,492
86,002
23,2
-26,603
-58,084
-70,537
-68,194
-60,435
-53,023
-48,179
-46,443
-45,332
-43,747
-42,31
-41,456
-42,059
-44,293
-47,361
-50,302
-52,181
-52,536
-51,405
-49,078
-45,982
-42,49
-38,92
-35,639
-32,979
-31,119
-30,107
-29,878
-30,282
-31,185
-32,48
-34,046
-35,78
-37,583
-39,349
-40,976
-42,375
-43,472
-44,223
-44,6
-44,584
-44,168
-43,364
-42,195
-40,701
-38,918
-36,876
-34,599
-32,109
-29,438
-26,625
-23,712
-20,743
-17,749
-14,749
-11,755
-8,772
-5,796
-2,818
0,179
3,218
6,322
9,504
12,783
16,169
19,673
23,31
27,095
31,045
35,181
39,515
44,051
48,792
53,735
58,87
64,189
69,669
75,275
80,978
86,75
92,573
98,444
104,356
110,296
116,252
122,21
128,164
134,127
140,1
146,077
152,055
158,031
164,022
170,072
176,208
182,443
188,771
195,154
201,557
207,946
214,263
220,44
226,388
231,996
237,182
241,89
246,056
249,621
252,507
254,609
255,842
256,143
255,461
253,764
251,039
247,276
242,516
236,835
230,329
223,108
215,259
206,836
197,898
188,507
178,729
168,64
158,314
147,827
137,27
126,757
116,376
106,202
96,268
86,568
77,091
67,827
58,777
49,963
41,409
33,144
25,213
17,681
10,584
3,943
-2,261
-8,094
-13,599
-18,799
-23,703
-28,299
-32,578
-36,537
-40,168
-43,464
-46,432
-49,088
-51,476
-53,668
-55,709
-57,623
-59,406
-61,018
-62,435
-63,654
-64,668
-65,476
-66,081
-66,486
-66,708
-66,78
-66,72
-66,541
-66,24
-65,797
-65,208
-64,485
-63,646
-62,724
-61,747
-60,734
-59,707
-58,691
-57,707
-56,769
-55,883
-55,043
-54,248
-53,501
-52,808
-52,176
-51,609
-51,107
-50,667
-50,287
-49,965
-49,697
-49,479
-49,302
-49,162
-49,054
-48,978
-48,934
-48,92
-48,936
-48,98
-49,05
-49,146
-49,264
-49,404
-49,56
-49,731
-49,914
-50,107
-50,309
-50,517
-50,731
-50,95
-51,173
-51,401
-51,634
-51,872
-52,116
-52,367
-52,626
-52,894
-53,173
-53,463
-53,766
-54,083
-54,416
-54,765
-55,132
-55,517
-55,92
-56,341
-56,781
-57,238
-57,712
-58,203
-58,71
-59,232
-59,769
-60,321
-60,887
-61,467
-62,058
-62,662
-63,277
-63,901
-64,534
-65,174
-65,821
-66,472
-67,127
-67,783
-68,44
-69,096
-69,749
-70,398
-71,042
-71,679
-72,308
-72,927
-73,536
-74,133
-74,719
-75,292
-75,851
-76,397
-76,929
-77,447
-77,95
-78,437
-78,908
-79,363
-79,801
-80,221
-80,623
-81,006
-81,369
-81,71
-82,03
-82,328
-82,601
-82,85
-83,074
-83,271
-83,441
-83,584
-83,699
-83,785
-83,842
-83,87
-83,868
-83,836
-83,774
-83,682
-83,561
-83,409
-83,228
-83,018
-82,78
-82,514
-82,222
-81,904
-81,562
-81,198
-80,814
-80,411
-79,992
-79,559
-79,116
-78,665
-78,209
-77,752
-77,297
-76,847
-76,405
-75,975
-75,558
-75,159
-74,78
-74,423
-74,091
-73,785
-73,508
-73,261
-73,044
-72,86
-72,707
-72,587
-72,498
-72,44
-72,412
-72,411
-72,436
-72,483
-72,551
-72,636
-72,733
-72,839
-72,948
-73,054
-73,153
-73,237
-73,3
-73,335
-73,334
-73,29
-73,195
-73,043
-72,827
-72,538
-72,17
-71,717
-71,173
-70,531
-69,786
-68,933
-67,968
-66,887
-65,687
-64,368
-62,927
-61,364
-59,679
-57,874
-55,95
-53,912
-51,763
-49,507
-47,151
-44,702
-42,168
-39,558
-36,882
-34,153
-31,384
-28,591
-25,787
-22,99
-20,215
-17,479
-14,8
-12,192
-9,672
-7,254
-4,953
-2,783
-0,761
1,097
2,778
4,266
5,551
6,62
7,463
8,07
8,439
8,568
8,454
8,091
7,469
6,582
5,43
4,017
2,352
0,448
-1,678
-3,996
-6,464
-9,039
-11,68
-14,35
-17,023
-19,672
-22,256
-24,732
-27,044
-29,147
-31,015
-32,631
-33,975
-35,039
-35,839
-36,418
-36,858
-37,236
-37,597
-37,982
-38,428
-38,987
-39,734
-40,751
-42,095
-43,829
-46,017
-48,643
-51,628
-54,816
-57,904
-60,576
-62,564
-63,532
-63,133
-61,275
-58,056
-53,768
-48,978
-44,083
-39,192
-34,559
-30,506
-26,901
-23,222
-18,471
-11,143
-0,13
15,16
35,553
62,009
94,935
134,135
178,46
225,979
274,975
323,814
370,384
411,566
444,317
466,845
477,826
477,86
468,319
448,45
418,596
378,52
325,939
262,321
191,147
118,307
54,567
7,799
-19,786
-30,591
-32,367
-32,252
-33,125
-35,102
-36,393
-35,952
-34,421
-33,021
-32,991
-34,574
-37,273
-40,424
-43,07
-44,441
-44,236
-42,414
-39,226
-35,142
-30,591
-25,938
-21,586
-17,908
-15,114
-13,292
-12,417
-12,358
-12,982
-14,181
-15,821
-17,767
-19,911
-22,134
-24,324
-26,386
-28,209
-29,711
-30,841
-31,564
-31,865
-31,751
-31,235
-30,341
-29,111
-27,579
-25,777
-23,737
-21,486
-19,061
-16,502
-13,85
-11,148
-8,424
-5,693
-2,963
-0,231
2,511
5,277
8,085
10,962
13,93
17,008
20,212
23,557
27,056
30,728
34,59
38,658
42,952
47,48
52,245
57,246
62,479
67,931
73,587
79,422
85,405
91,512
97,719
104,004
110,354
116,741
123,142
129,533
135,887
142,184
148,42
154,588
160,688
166,742
172,765
178,785
184,842
190,946
197,105
203,322
209,581
215,878
222,202
228,527
234,827
241,075
247,214
253,178
258,888
264,219
269,057
273,277
276,743
279,358
281,035
281,681
281,228
279,609
276,766
272,675
267,311
260,647
252,697
243,5
233,129
221,721
209,412
196,346
182,693
168,591
154,193
139,669
125,179
110,885
96,944
83,482
70,626
58,522
47,279
36,974
27,65
19,291
11,875
5,376
-0,255
-5,067
-9,129
-12,536
-15,391
-17,803
-19,878
-21,699
-23,359
-24,962
-26,594
-28,321
-30,184
-32,19
-34,343
-36,65
-39,103
-41,691
-44,385
-47,138
-49,897
-52,604
-55,208
-57,674
-59,963
-62,037
-63,868
-65,435
-66,735
-67,779
-68,576
-69,135
-69,468
-69,588
-69,519
-69,29
-68,933
-68,483
-67,968
-67,408
-66,823
-66,228
-65,634
-65,051
-64,48
-63,916
-63,357
-62,804
-62,255
-61,711
-61,169
-60,625
-60,076
-59,518
-58,947
-58,363
-57,766
-57,156
-56,535
-55,905
-55,27
-54,636
-54,007
-53,385
-52,773
-52,174
-51,59
-51,024
-50,478
-49,953
-49,453
-48,981
-48,539
-48,131
-47,76
-47,43
-47,144
-46,905
-46,717
-46,581
-46,502
-46,481
-46,521
-46,623
-46,789
-47,02
-47,315
-47,674
-48,098
-48,583
-49,128
-49,732
-50,391
-51,102
-51,862
-52,667
-53,514
-54,397
-55,314
-56,258
-57,225
-58,211
-59,211
-60,218
-61,227
-62,233
-63,23
-64,212
-65,174
-66,109
-67,013
-67,879
-68,703
-69,481
-70,208
-70,88
-71,494
-72,048
-72,54
-72,967
-73,328
-73,624
-73,855
-74,02
-74,121
-74,161
-74,14
-74,062
-73,93
-73,747
-73,518
-73,245
-72,934
-72,59
-72,216
-71,819
-71,404
-70,976
-70,541
-70,104
-69,672
-69,25
-68,843
-68,456
-68,094
-67,762
-67,464
-67,202
-66,981
-66,801
-66,666
-66,577
-66,534
-66,537
-66,585
-66,676
-66,809
-66,982
-67,189
-67,429
-67,695
-67,983
-68,288
-68,604
-68,925
-69,244
-69,554
-69,847
-70,117
-70,354
-70,552
-70,7
-70,791
-70,817
-70,769
-70,641
-70,425
-70,113
-69,7
-69,18
-68,548
-67,799
-66,93
-65,938
-64,821
-63,577
-62,209
-60,715
-59,1
-57,364
-55,512
-53,55
-51,484
-49,32
-47,065
-44,729
-42,32
-39,849
-37,327
-34,766
-32,18
-29,583
-26,99
-24,419
-21,887
-19,41
-17,005
-14,69
-12,48
-10,391
-8,436
-6,629
-4,983
-3,511
-2,227
-1,144
-0,272
0,38
0,804
0,993
0,939
0,641
0,102
-0,677
-1,695
-2,953
-4,461
-6,221
-8,224
-10,462
-12,92
-15,58
-18,422
-21,417
-24,517
-27,682
-30,869
-34,046
-37,192
-40,273
-43,25
-46,074
-48,686
-51,051
-53,153
-54,974
-56,501
-57,736
-58,694
-59,417
-59,976
-60,433
-60,841
-61,25
-61,704
-62,267
-62,998
-63,977
-65,308
-67,017
-69,062
-71,337
-73,642
-75,777
-77,59
-78,837
-79,216
-78,553
-76,779
-74,089
-70,944
-67,669
-64,449
-61,41
-58,594
-56,035
-53,646
-50,788
-46,399
-39,516
-29,248
-15,024
3,53
27,09
56,088
90,221
128,735
170,598
214,506
259,311
303,108
342,735
375,377
399,135
414,041
421,618
422,642
415,994
397,509
362,545
307,993
234,464
149,647
64,543
-8,717
-61
-91,911
-106,125
-110,526
-109,833
-103,065
-87,996
-64,771
-38,332
-16,388
-4,601
-3,709
-8,802
-14,49
-17,778
-18,394
-19,144
-21,883
-26,466
-32,134
-37,221
-40,553
-42,104
-42,143
-41,154
-39,796
-38,59
-37,779
-37,523
-37,96
-39,074
-40,802
-43,051
-45,541
-47,924
-50,006
-51,671
-52,862
-53,612
-53,925
-53,781
-53,224
-52,32
-51,117
-49,659
-47,96
-46,011
-43,83
-41,454
-38,926
-36,298
-33,604
-30,858
-28,075
-25,262
-22,423
-19,563
-16,674
-13,738
-10,74
-7,671
-4,523
-1,29
2,04
5,482
9,052
12,763
16,624
20,645
24,837
29,216
33,788
38,555
43,512
48,654
53,973
59,459
65,089
70,834
76,659
82,541
88,467
94,434
100,433
106,454
112,482
118,506
124,526
130,547
136,566
142,574
148,563
154,533
160,508
166,534
172,642
178,839
185,103
191,399
197,688
203,927
210,059
216,012
221,683
226,979
231,829
236,176
239,967
243,133
245,58
247,191
247,879
247,589
246,297
243,998
240,694
236,405
231,181
225,109
218,309
210,886
202,918
194,47
185,605
176,403
166,967
157,411
147,828
138,289
128,853
119,57
110,494
101,656
93,066
84,7
76,516
68,489
60,617
52,91
45,379
38,029
30,853
23,846
17,018
10,383
3,949
-2,274
-8,284
-14,07
-19,606
-24,858
-29,787
-34,367
-38,583
-42,43
-45,906
-49,008
-51,74
-54,11
-56,134
-57,831
-59,214
-60,296
-61,089
-61,611
-61,882
-61,926
-61,767
-61,429
-60,932
-60,296
-59,542
-58,69
-57,756
-56,756
-55,702
-54,608
-53,488
-52,356
-51,226
-50,109
-49,016
-47,959
-46,946
-45,987
-45,087
-44,252
-43,486
-42,79
-42,168
-41,62
-41,146
-40,745
-40,415
-40,155
-39,961
-39,831
-39,761
-39,745
-39,78
-39,861
-39,983
-40,14
-40,329
-40,542
-40,777
-41,029
-41,293
-41,566
-41,844
-42,122
-42,399
-42,672
-42,938
-43,194
-43,44
-43,674
-43,895
-44,103
-44,299
-44,484
-44,657
-44,822
-44,979
-45,129
-45,276
-45,421
-45,566
-45,714
-45,867
-46,027
-46,197
-46,379
-46,577
-46,791
-47,024
-47,277
-47,553
-47,853
-48,178
-48,528
-48,905
-49,308
-49,738
-50,194
-50,675
-51,181
-51,711
-52,262
-52,833
-53,421
-54,025
-54,641
-55,267
-55,9
-56,536
-57,174
-57,809
-58,438
-59,059
-59,668
-60,262
-60,838
-61,393
-61,925
-62,43
-62,906
-63,351
-63,763
-64,14
-64,481
-64,784
-65,048
-65,273
-65,459
-65,605
-65,712
-65,781
-65,812
-65,808
-65,769
-65,698
-65,598
-65,471
-65,32
-65,149
-64,961
-64,759
-64,547
-64,33
-64,11
-63,893
-63,681
-63,479
-63,292
-63,123
-62,975
-62,852
-62,758
-62,696
-62,667
-62,676
-62,724
-62,812
-62,942
-63,115
-63,332
-63,592
-63,895
-64,241
-64,626
-65,05
-65,51
-66,001
-66,521
-67,065
-67,629
-68,206
-68,792
-69,38
-69,963
-70,535
-71,088
-71,615
-72,106
-72,554
-72,952
-73,29
-73,561
-73,758
-73,871
-73,895
-73,822
-73,646
-73,361
-72,96
-72,439
-71,794
-71,022
-70,118
-69,083
-67,915
-66,613
-65,18
-63,617
-61,928
-60,118
-58,19
-56,151
-54,01
-51,775
-49,454
-47,061
-44,605
-42,102
-39,567
-37,016
-34,465
-31,933
-29,436
-26,992
-24,619
-22,334
-20,151
-18,087
-16,157
-14,377
-12,764
-11,334
-10,102
-9,079
-8,277
-7,708
-7,38
-7,3
-7,467
-7,884
-8,551
-9,473
-10,662
-12,122
-13,847
-15,83
-18,06
-20,519
-23,188
-26,039
-29,029
-32,118
-35,267
-38,441
-41,622
-44,778
-47,873
-50,859
-53,68
-56,288
-58,658
-60,768
-62,601
-64,151
-65,42
-66,437
-67,255
-67,931
-68,513
-69,041
-69,55
-70,082
-70,679
-71,416
-72,392
-73,651
-75,171
-76,842
-78,472
-79,876
-80,913
-81,374
-80,982
-79,542
-76,984
-73,52
-69,64
-65,744
-62,093
-58,845
-56,076
-53,829
-52,004
-49,977
-46,644
-40,9
-31,688
-18,251
-0,1
23,391
52,662
87,519
127,214
170,557
215,959
261,886
306,698
348,191
384,095
412,244
430,608
437,769
433,346
417,751
391,843
356,853
312,774
259,292
198,401
134,45
75
28,122
-2,396
-17,678
-23,025
-24,494
-25,647
-27,143
-27,791
-27,127
-25,731
-24,67
-25,313
-27,952
-31,994
-36,782
-41,323
-44,706
-46,581
-46,806
-45,475
-42,97
-39,679
-35,98
-32,311
-29,082
-26,531
-24,759
-23,768
-23,46
-23,736
-24,509
-25,671
-27,096
-28,693
-30,396
-32,123
-33,807
-35,364
-36,689
-37,714
-38,399
-38,715
-38,656
-38,229
-37,445
-36,327
-34,916
-33,242
-31,333
-29,216
-26,91
-24,446
-21,858
-19,182
-16,455
-13,704
-10,943
-8,182
-5,423
-2,66
0,12
2,932
5,799
8,74
11,77
14,906
18,162
21,551
25,083
28,772
32,629
36,665
40,898
45,334
49,973
54,813
59,846
65,062
70,448
75,98
81,627
87,355
93,135
98,945
104,778
110,621
116,458
122,271
128,037
133,75
139,42
145,051
150,637
156,182
161,684
167,167
172,678
178,245
183,879
189,573
195,291
201,004
206,69
212,313
217,828
223,164
228,224
232,93
237,216
241,007
244,216
246,729
248,411
249,16
248,918
247,65
245,344
241,989
237,572
232,103
225,624
218,204
209,927
200,866
191,094
180,708
169,836
158,645
147,304
135,945
124,663
113,533
102,629
92,026
81,795
71,989
62,634
53,748
45,36
37,5
30,182
23,391
17,072
11,14
5,52
0,17
-4,938
-9,816
-14,485
-18,969
-23,279
-27,418
-31,384
-35,185
-38,852
-42,414
-45,882
-49,245
-52,467
-55,492
-58,283
-60,822
-63,091
-65,084
-66,796
-68,223
-69,378
-70,282
-70,947
-71,38
-71,573
-71,517
-71,22
-70,701
-69,988
-69,119
-68,123
-67,025
-65,856
-64,639
-63,393
-62,137
-60,878
-59,618
-58,366
-57,134
-55,936
-54,786
-53,695
-52,67
-51,714
-50,831
-50,024
-49,293
-48,635
-48,051
-47,54
-47,102
-46,739
-46,456
-46,253
-46,13
-46,088
-46,124
-46,237
-46,424
-46,68
-47,002
-47,384
-47,823
-48,315
-48,853
-49,435
-50,055
-50,707
-51,387
-52,09
-52,809
-53,541
-54,278
-55,018
-55,756
-56,487
-57,208
-57,916
-58,608
-59,281
-59,933
-60,561
-61,164
-61,739
-62,285
-62,8
-63,282
-63,731
-64,145
-64,524
-64,868
-65,176
-65,449
-65,688
-65,894
-66,067
-66,21
-66,322
-66,406
-66,463
-66,495
-66,504
-66,492
-66,46
-66,411
-66,346
-66,267
-66,176
-66,074
-65,962
-65,841
-65,712
-65,578
-65,437
-65,292
-65,143
-64,991
-64,838
-64,683
-64,529
-64,375
-64,223
-64,073
-63,925
-63,782
-63,642
-63,507
-63,378
-63,253
-63,135
-63,023
-62,917
-62,818
-62,726
-62,641
-62,563
-62,493
-62,43
-62,376
-62,33
-62,293
-62,264
-62,245
-62,235
-62,235
-62,244
-62,262
-62,288
-62,323
-62,365
-62,414
-62,468
-62,526
-62,585
-62,645
-62,703
-62,757
-62,802
-62,838
-62,86
-62,866
-62,852
-62,815
-62,751
-62,656
-62,527
-62,36
-62,15
-61,895
-61,589
-61,229
-60,812
-60,334
-59,792
-59,183
-58,506
-57,757
-56,936
-56,041
-55,073
-54,031
-52,916
-51,73
-50,476
-49,157
-47,777
-46,342
-44,856
-43,33
-41,77
-40,186
-38,588
-36,987
-35,393
-33,818
-32,273
-30,769
-29,316
-27,926
-26,611
-25,385
-24,261
-23,253
-22,371
-21,627
-21,032
-20,596
-20,329
-20,233
-20,314
-20,575
-21,025
-21,674
-22,534
-23,604
-24,884
-26,367
-28,042
-29,898
-31,915
-34,063
-36,313
-38,637
-41,008
-43,413
-45,836
-48,246
-50,609
-52,878
-55,007
-56,973
-58,76
-60,355
-61,756
-62,968
-64,015
-64,952
-65,823
-66,657
-67,486
-68,324
-69,201
-70,169
-71,268
-72,57
-74,17
-76,081
-78,264
-80,607
-82,885
-84,89
-86,456
-87,33
-87,243
-86,058
-83,749
-80,584
-77,094
-73,668
-70,563
-67,954
-65,921
-64,515
-63,627
-62,579
-60,237
-55,53
-47,441
-35,239
-18,401
3,79
31,825
65,517
104,091
146,368
190,808
235,857
279,78
320,306
355,04
381,708
398,422
403,781
397,374
379,985
352,16
314,709
268,184
212,334
150,668
89,375
34,865
-5,983
-32,498
-48,466
-56,652
-60,299
-58,769
-50,803
-39,721
-29,366
-24,876
-28,513
-36,914
-46,455
-53,215
-55,702
-55,915
-54,979
-53,746
-52,445
-50,042
-46,395
-41,951
-37,08
-32,414
-28,388
-25,066
-22,5
-20,699
-19,558
-18,981
-18,89
-19,198
-19,816
-20,694
-21,78
-22,982
-24,224
-25,423
-26,471
-27,3
-27,868
-28,137
-28,099
-27,758
-27,12
-26,206
-25,047
-23,666
-22,085
-20,326
-18,404
-16,345
-14,184
-11,953
-9,686
-7,405
-5,116
-2,824
-0,524
1,798
4,158
6,576
9,083
11,7
14,443
17,331
20,38
23,611
27,048
30,71
34,608
38,75
43,141
47,777
52,65
57,745
63,032
68,489
74,094
79,826
85,675
91,618
97,636
103,713
109,826
115,964
122,126
128,309
134,521
140,781
147,111
153,542
160,119
166,862
173,782
180,883
188,15
195,57
203,117
210,741
218,391
226,009
233,518
240,836
247,861
254,46
260,509
265,884
270,452
274,107
276,75
278,291
278,669
277,845
275,807
272,574
268,181
262,66
256,063
248,465
239,974
230,733
220,864
210,484
199,706
188,647
177,447
166,235
155,118
144,17
133,44
122,965
112,776
102,913
93,405
84,256
75,441
66,926
58,704
50,783
43,183
35,894
28,864
22,054
15,439
9,024
2,827
-3,14
-8,878
-14,386
-19,658
-24,671
-29,39
-33,796
-37,893
-41,699
-45,243
-48,525
-51,512
-54,184
-56,536
-58,575
-60,319
-61,776
-62,941
-63,823
-64,441
-64,822
-64,995
-64,979
-64,775
-64,388
-63,819
-63,084
-62,213
-61,232
-60,159
-59,011
-57,801
-56,55
-55,281
-54,009
-52,74
-51,478
-50,228
-48,997
-47,799
-46,644
-45,537
-44,483
-43,483
-42,539
-41,654
-40,829
-40,063
-39,354
-38,7
-38,098
-37,551
-37,059
-36,622
-36,24
-35,91
-35,631
-35,403
-35,223
-35,089
-34,999
-34,948
-34,936
-34,959
-35,016
-35,105
-35,224
-35,37
-35,543
-35,74
-35,961
-36,204
-36,468
-36,751
-37,053
-37,373
-37,711
-38,066
-38,438
-38,826
-39,23
-39,649
-40,083
-40,531
-40,992
-41,466
-41,95
-42,446
-42,95
-43,462
-43,982
-44,509
-45,042
-45,581
-46,124
-46,671
-47,221
-47,773
-48,326
-48,879
-49,431
-49,98
-50,526
-51,067
-51,603
-52,133
-52,654
-53,168
-53,671
-54,165
-54,647
-55,118
-55,577
-56,024
-56,458
-56,881
-57,292
-57,691
-58,08
-58,458
-58,827
-59,187
-59,539
-59,883
-60,221
-60,552
-60,877
-61,198
-61,515
-61,829
-62,141
-62,452
-62,762
-63,074
-63,387
-63,703
-64,023
-64,348
-64,677
-65,013
-65,355
-65,705
-66,061
-66,426
-66,798
-67,177
-67,563
-67,956
-68,354
-68,755
-69,16
-69,565
-69,97
-70,372
-70,769
-71,158
-71,538
-71,906
-72,259
-72,594
-72,908
-73,197
-73,458
-73,686
-73,879
-74,031
-74,138
-74,196
-74,201
-74,147
-74,031
-73,849
-73,596
-73,269
-72,862
-72,374
-71,801
-71,138
-70,385
-69,538
-68,595
-67,557
-66,423
-65,192
-63,866
-62,445
-60,932
-59,33
-57,641
-55,87
-54,022
-52,101
-50,116
-48,071
-45,978
-43,843
-41,678
-39,496
-37,307
-35,125
-32,964
-30,837
-28,758
-26,741
-24,799
-22,946
-21,194
-19,555
-18,043
-16,671
-15,453
-14,4
-13,525
-12,839
-12,351
-12,073
-12,01
-12,163
-12,535
-13,129
-13,948
-14,999
-16,287
-17,808
-19,556
-21,523
-23,695
-26,055
-28,572
-31,202
-33,905
-36,641
-39,375
-42,083
-44,738
-47,3
-49,735
-51,997
-54,047
-55,868
-57,442
-58,747
-59,776
-60,545
-61,099
-61,521
-61,888
-62,252
-62,648
-63,106
-63,668
-64,394
-65,338
-66,548
-68,041
-69,822
-71,93
-74,349
-76,978
-79,627
-81,947
-83,557
-84,187
-83,55
-81,347
-77,513
-72,105
-65,356
-57,89
-50,227
-42,67
-35,66
-29,496
-23,967
-18,673
-12,818
-4,957
6,092
21,296
41,829
68,549
101,715
141,175
185,974
233,702
281,399
326,136
365,175
397,71
424,056
443,893
455,633
454,464
435,167
394,476
331,981
254,577
171,989
94,829
34,445
-5,492
-26,262
-32,696
-33,913
-34,739
-36,39
-38,446
-38,143
-35,148
-31,245
-27,975
-26,921
-28,403
-31,613
-35,776
-40,065
-43,705
-46,122
-47,011
-46,419
-44,611
-41,993
-38,976
-35,886
-33,049
-30,784
-29,243
-28,452
-28,361
-28,835
-29,752
-31,03
-32,56
-34,246
-36,02
-37,794
-39,492
-41,047
-42,368
-43,392
-44,085
-44,414
-44,368
-43,954
-43,18
-42,069
-40,655
-38,965
-37,022
-34,849
-32,464
-29,892
-27,166
-24,316
-21,375
-18,368
-15,301
-12,184
-9,014
-5,784
-2,484
0,901
4,395
8,011
11,763
15,662
19,715
23,933
28,325
32,9
37,665
42,627
47,787
53,146
58,702
64,452
70,388
76,501
82,777
89,204
95,768
102,455
109,247
116,127
123,076
130,072
137,094
144,118
151,12
158,071
164,945
171,712
178,344
184,811
191,082
197,13
202,923
208,433
213,631
218,49
222,983
227,085
230,772
234,022
236,814
239,129
240,953
242,27
243,07
243,344
243,084
242,289
240,957
239,089
236,689
233,765
230,326
226,384
221,954
217,051
211,696
205,91
199,716
193,141
186,212
178,957
171,406
163,592
155,547
147,303
138,895
130,356
121,72
113,022
104,295
95,573
86,887
78,27
69,752
61,361
53,125
45,071
37,222
29,6
22,227
15,12
8,297
1,772
-4,442
-10,335
-15,899
-21,127
-26,015
-30,561
-34,764
-38,627
-42,151
-45,344
-48,211
-50,761
-53,004
-54,95
-56,612
-58,004
-59,14
-60,035
-60,705
-61,166
-61,435
-61,528
-61,463
-61,255
-60,923
-60,481
-59,945
-59,332
-58,655
-57,93
-57,168
-56,383
-55,587
-54,791
-54,005
-53,239
-52,501
-51,798
-51,138
-50,525
-49,966
-49,465
-49,023
-48,645
-48,331
-48,083
-47,9
-47,782
-47,727
-47,734
-47,801
-47,924
-48,102
-48,33
-48,605
-48,925
-49,284
-49,679
-50,107
-50,565
-51,047
-51,552
-52,076
-52,616
-53,169
-53,733
-54,304
-54,881
-55,462
-56,045
-56,627
-57,209
-57,788
-58,364
-58,935
-59,502
-60,065
-60,622
-61,175
-61,723
-62,267
-62,807
-63,345
-63,88
-64,413
-64,946
-65,477
-66,009
-66,541
-67,074
-67,608
-68,143
-68,679
-69,217
-69,754
-70,292
-70,829
-71,365
-71,899
-72,43
-72,957
-73,479
-73,995
-74,503
-75,002
-75,491
-75,969
-76,433
-76,882
-77,315
-77,731
-78,128
-78,504
-78,858
-79,19
-79,498
-79,781
-80,039
-80,271
-80,477
-80,655
-80,807
-80,932
-81,03
-81,102
-81,148
-81,169
-81,166
-81,139
-81,09
-81,02
-80,93
-80,822
-80,696
-80,556
-80,401
-80,234
-80,058
-79,873
-79,683
-79,488
-79,292
-79,096
-78,902
-78,712
-78,528
-78,352
-78,185
-78,029
-77,886
-77,756
-77,641
-77,543
-77,463
-77,401
-77,358
-77,337
-77,337
-77,359
-77,404
-77,473
-77,566
-77,684
-77,828
-77,997
-78,191
-78,411
-78,657
-78,927
-79,221
-79,538
-79,878
-80,237
-80,615
-81,009
-81,418
-81,838
-82,268
-82,704
-83,143
-83,583
-84,02
-84,451
-84,87
-85,276
-85,662
-86,024
-86,357
-86,656
-86,914
-87,128
-87,29
-87,394
-87,436
-87,408
-87,305
-87,12
-86,848
-86,484
-86,021
-85,455
-84,781
-83,995
-83,094
-82,076
-80,937
-79,677
-78,296
-76,793
-75,169
-73,427
-71,568
-69,595
-67,514
-65,328
-63,045
-60,672
-58,216
-55,689
-53,102
-50,468
-47,8
-45,113
-42,422
-39,741
-37,087
-34,476
-31,921
-29,437
-27,042
-24,75
-22,58
-20,55
-18,675
-16,971
-15,452
-14,131
-13,022
-12,135
-11,475
-11,047
-10,857
-10,912
-11,227
-11,812
-12,666
-13,789
-15,171
-16,799
-18,659
-20,725
-22,96
-25,327
-27,788
-30,311
-32,874
-35,45
-38,008
-40,505
-42,889
-45,112
-47,144
-48,965
-50,561
-51,932
-53,082
-54,044
-54,878
-55,635
-56,372
-57,14
-57,968
-58,905
-60
-61,295
-62,861
-64,79
-67,098
-69,738
-72,593
-75,442
-78,099
-80,421
-82,172
-83,075
-82,931
-81,625
-79,303
-76,363
-73,066
-69,473
-65,605
-61,435
-56,969
-52,257
-46,896
-39,996
-30,738
-18,485
-2,845
16,365
39,605
67,531
100,201
137,15
177,648
220,496
264,712
308,801
349,679
384,893
412,837
432,674
446,343
453,764
451,383
435,807
401,277
345,03
272,189
189,884
109,624
44,059
-2,203
-28,598
-39,789
-45,274
-49,875
-54,952
-59,826
-61,127
-58,216
-53,15
-47,865
-44,246
-42,945
-43,457
-45,191
-47,668
-50,393
-52,461
-53,256
-52,721
-50,946
-48,259
-45,064
-41,456
-37,572
-33,97
-31,013
-28,817
-27,472
-26,825
-26,703
-27,131
-28,085
-29,376
-30,861
-32,395
-33,824
-35,103
-36,173
-36,942
-37,363
-37,407
-37,067
-36,368
-35,339
-33,998
-32,378
-30,508
-28,412
-26,124
-23,67
-21,084
-18,4
-15,654
-12,88
-10,101
-7,327
-4,565
-1,812
0,943
3,713
6,519
9,385
12,33
15,369
18,519
21,794
25,209
28,779
32,518
36,439
40,553
44,867
49,386
54,115
59,053
64,199
69,547
75,091
80,821
86,73
92,805
99,035
105,406
111,901
118,501
125,188
131,938
138,728
145,53
152,318
159,063
165,734
172,301
178,731
184,995
191,059
196,891
202,461
207,737
212,689
217,288
221,506
225,316
228,694
231,617
234,064
236,016
237,456
238,371
238,75
238,583
237,865
236,593
234,766
232,387
229,461
225,997
222,007
217,504
212,506
207,032
201,104
194,749
187,991
180,861
173,39
165,608
157,55
149,25
140,744
132,068
123,257
114,349
105,381
96,387
87,404
78,467
69,609
60,864
52,262
43,835
35,61
27,615
19,874
12,41
5,245
-1,604
-8,12
-14,288
-20,096
-25,536
-30,6
-35,284
-39,584
-43,502
-47,039
-50,2
-52,99
-55,417
-57,492
-59,225
-60,629
-61,718
-62,507
-63,013
-63,252
-63,241
-63,001
-62,548
-61,901
-61,081
-60,106
-58,994
-57,765
-56,438
-55,029
-53,558
-52,04
-50,492
-48,929
-47,366
-45,817
-44,294
-42,809
-41,372
-39,992
-38,679
-37,438
-36,277
-35,2
-34,211
-33,315
-32,511
-31,804
-31,192
-30,675
-30,254
-29,925
-29,688
-29,539
-29,476
-29,494
-29,591
-29,761
-30,002
-30,308
-30,674
-31,095
-31,567
-32,085
-32,643
-33,236
-33,86
-34,509
-35,18
-35,866
-36,566
-37,274
-37,987
-38,701
-39,414
-40,123
-40,824
-41,517
-42,198
-42,866
-43,52
-44,159
-44,781
-45,386
-45,974
-46,543
-47,095
-47,628
-48,143
-48,641
-49,122
-49,586
-50,036
-50,47
-50,892
-51,303
-51,703
-52,095
-52,481
-52,862
-53,24
-53,617
-53,995
-54,376
-54,761
-55,152
-55,551
-55,959
-56,379
-56,81
-57,256
-57,717
-58,193
-58,685
-59,194
-59,721
-60,264
-60,825
-61,402
-61,994
-62,602
-63,223
-63,856
-64,499
-65,15
-65,804
-66,46
-67,113
-67,759
-68,393
-69,012
-69,609
-70,18
-70,72
-71,222
-71,681
-72,092
-72,447
-72,74
-72,966
-73,119
-73,191
-73,177
-73,071
-72,867
-72,56
-72,146
-71,62
-70,977
-70,213
-69,327
-68,314
-67,173
-65,903
-64,503
-62,973
-61,316
-59,532
-57,626
-55,601
-53,463
-51,218
-48,872
-46,433
-43,911
-41,313
-38,651
-35,934
-33,175
-30,387
-27,581
-24,773
-21,976
-19,207
-16,483
-13,819
-11,233
-8,739
-6,355
-4,096
-1,976
-0,008
1,796
3,424
4,864
6,102
7,128
7,934
8,511
8,853
8,956
8,814
8,43
7,809
6,954
5,871
4,559
3,013
1,234
-0,77
-2,988
-5,403
-7,997
-10,749
-13,626
-16,585
-19,583
-22,582
-25,551
-28,472
-31,314
-34,039
-36,602
-38,949
-41,042
-42,861
-44,38
-45,585
-46,477
-47,07
-47,402
-47,536
-47,527
-47,423
-47,276
-47,125
-47,022
-47,024
-47,202
-47,661
-48,443
-49,51
-50,762
-51,997
-52,99
-53,566
-53,491
-52,425
-50,179
-46,785
-42,495
-37,873
-33,485
-29,618
-26,504
-24,458
-23,563
-23,494
-23,481
-22,142
-17,947
-9,836
3,074
21,801
47,083
79,157
117,665
161,244
207,917
255,938
303,388
347,678
386,096
415,935
434,707
441,422
436,373
419,694
391,473
351,17
297,77
232,631
160,877
91,092
32,371
-9,32
-34,154
-48,54
-58,103
-65,475
-69,672
-65,386
-52,231
-35,007
-19,324
-12,542
-15,941
-24,649
-34,545
-40,986
-42,577
-42,037
-40,716
-39,682
-39,429
-38,824
-37,591
-36,097
-34,548
-33,465
-33,21
-33,741
-34,978
-36,836
-39,121
-41,675
-44,408
-47,206
-49,962
-52,589
-54,964
-56,992
-58,638
-59,876
-60,694
-61,085
-61,033
-60,545
-59,661
-58,42
-56,864
-55,025
-52,923
-50,589
-48,06
-45,379
-42,595
-39,742
-36,836
-33,892
-30,918
-27,92
-24,904
-21,865
-18,787
-15,656
-12,46
-9,191
-5,845
-2,41
1,127
4,779
8,563
12,486
16,552
20,766
25,134
29,661
34,357
39,221
44,244
49,419
54,734
60,177
65,733
71,379
77,079
82,801
88,514
94,198
99,847
105,449
110,987
116,446
121,803
127,052
132,203
137,26
142,221
147,091
151,87
156,587
161,294
166,023
170,794
175,598
180,396
185,156
189,853
194,446
198,894
203,135
207,078
210,658
213,826
216,521
218,679
220,199
220,945
220,808
219,717
217,638
214,573
210,525
205,492
199,503
192,604
184,859
176,36
167,162
157,308
146,867
135,926
124,618
113,119
101,592
90,155
78,905
67,912
57,243
46,972
37,139
27,77
18,884
10,493
2,646
-4,604
-11,229
-17,231
-22,649
-27,562
-32,051
-36,171
-39,967
-43,473
-46,715
-49,723
-52,509
-55,075
-57,424
-59,573
-61,565
-63,445
-65,246
-66,978
-68,631
-70,175
-71,567
-72,781
-73,793
-74,587
-75,158
-75,505
-75,637
-75,572
-75,328
-74,912
-74,321
-73,551
-72,602
-71,482
-70,212
-68,818
-67,333
-65,79
-64,217
-62,642
-61,085
-59,56
-58,077
-56,643
-55,258
-53,928
-52,659
-51,458
-50,335
-49,293
-48,334
-47,458
-46,662
-45,942
-45,294
-44,713
-44,194
-43,734
-43,331
-42,984
-42,691
-42,454
-42,269
-42,135
-42,049
-42,007
-42,006
-42,043
-42,114
-42,215
-42,342
-42,493
-42,666
-42,857
-43,066
-43,289
-43,525
-43,772
-44,029
-44,294
-44,567
-44,846
-45,131
-45,421
-45,716
-46,015
-46,32
-46,629
-46,944
-47,265
-47,592
-47,926
-48,266
-48,613
-48,966
-49,327
-49,693
-50,066
-50,444
-50,829
-51,219
-51,615
-52,016
-52,421
-52,83
-53,242
-53,655
-54,069
-54,481
-54,89
-55,295
-55,695
-56,087
-56,47
-56,843
-57,204
-57,552
-57,885
-58,201
-58,5
-58,779
-59,038
-59,274
-59,488
-59,678
-59,842
-59,982
-60,096
-60,184
-60,246
-60,283
-60,293
-60,279
-60,24
-60,178
-60,093
-59,988
-59,862
-59,718
-59,559
-59,385
-59,199
-59,004
-58,801
-58,593
-58,383
-58,172
-57,963
-57,76
-57,563
-57,376
-57,202
-57,042
-56,899
-56,774
-56,67
-56,589
-56,531
-56,5
-56,494
-56,516
-56,566
-56,645
-56,751
-56,886
-57,048
-57,237
-57,45
-57,686
-57,944
-58,22
-58,512
-58,816
-59,131
-59,451
-59,774
-60,094
-60,408
-60,71
-60,995
-61,258
-61,493
-61,695
-61,858
-61,977
-62,045
-62,058
-62,01
-61,895
-61,708
-61,445
-61,1
-60,669
-60,148
-59,534
-58,823
-58,014
-57,104
-56,092
-54,979
-53,763
-52,446
-51,031
-49,518
-47,911
-46,214
-44,431
-42,568
-40,632
-38,629
-36,568
-34,459
-32,313
-30,143
-27,961
-25,779
-23,611
-21,472
-19,374
-17,332
-15,357
-13,463
-11,662
-9,968
-8,396
-6,959
-5,671
-4,543
-3,588
-2,816
-2,236
-1,857
-1,682
-1,714
-1,957
-2,417
-3,106
-4,033
-5,197
-6,598
-8,228
-10,075
-12,123
-14,35
-16,72
-19,196
-21,744
-24,327
-26,923
-29,504
-32,038
-34,485
-36,794
-38,918
-40,828
-42,502
-43,93
-45,111
-46,055
-46,793
-47,388
-47,897
-48,382
-48,907
-49,515
-50,266
-51,222
-52,432
-53,977
-55,954
-58,383
-61,225
-64,36
-67,563
-70,653
-73,478
-75,792
-77,308
-77,816
-77,202
-75,636
-73,504
-71,045
-68,358
-65,477
-62,411
-59,216
-55,835
-51,715
-45,925
-37,603
-25,972
-10,562
8,992
33,358
62,998
97,701
136,893
179,685
224,673
270,712
315,944
356,85
391,075
417,24
434,495
445,051
449,268
443,768
425,686
389,488
331,607
257,086
173,725
93,918
31,745
-7,983
-26,288
-29,71
-29,126
-29,86
-33,036
-37,431
-39,623
-39,144
-37,464
-35,93
-36,139
-38,315
-41,63
-45,395
-48,699
-50,714
-51,159
-50,003
-47,45
-43,95
-39,942
-35,774
-31,83
-28,488
-25,96
-24,336
-23,601
-23,627
-24,288
-25,483
-27,095
-28,997
-31,094
-33,286
-35,465
-37,533
-39,384
-40,929
-42,117
-42,912
-43,296
-43,264
-42,824
-41,998
-40,822
-39,33
-37,551
-35,51
-33,23
-30,744
-28,093
-25,321
-22,471
-19,575
-16,65
-13,705
-10,742
-7,755
-4,734
-1,66
1,492
4,743
8,111
11,608
15,244
19,03
22,98
27,112
31,445
35,99
40,75
45,728
50,92
56,315
61,905
67,664
73,56
79,56
85,636
91,768
97,952
104,18
110,44
116,719
122,999
129,272
135,549
141,833
148,121
154,414
160,708
167,024
173,404
179,879
186,468
193,165
199,928
206,712
213,475
220,165
226,729
233,095
239,154
244,821
250,031
254,72
258,837
262,297
264,97
266,744
267,532
267,282
265,993
263,677
260,343
256,025
250,769
244,645
237,773
230,244
222,113
213,43
204,23
194,594
184,664
174,588
164,484
154,443
144,516
134,744
125,182
115,862
106,802
97,997
89,409
81,027
72,881
65,02
57,506
50,358
43,539
36,987
30,663
24,55
18,645
12,949
7,445
2,125
-3
-7,903
-12,546
-16,91
-21,012
-24,888
-28,586
-32,126
-35,491
-38,647
-41,576
-44,272
-46,733
-48,959
-50,938
-52,664
-54,149
-55,421
-56,509
-57,432
-58,195
-58,79
-59,21
-59,461
-59,562
-59,541
-59,419
-59,215
-58,945
-58,63
-58,291
-57,951
-57,617
-57,291
-56,974
-56,67
-56,389
-56,14
-55,933
-55,77
-55,655
-55,588
-55,57
-55,603
-55,687
-55,819
-55,995
-56,214
-56,476
-56,781
-57,131
-57,524
-57,959
-58,433
-58,946
-59,496
-60,08
-60,695
-61,337
-62,005
-62,694
-63,403
-64,129
-64,87
-65,624
-66,389
-67,162
-67,943
-68,729
-69,52
-70,314
-71,109
-71,906
-72,702
-73,496
-74,288
-75,076
-75,858
-76,634
-77,402
-78,16
-78,909
-79,646
-80,369
-81,079
-81,774
-82,452
-83,112
-83,754
-84,377
-84,979
-85,561
-86,121
-86,66
-87,175
-87,666
-88,133
-88,574
-88,989
-89,375
-89,732
-90,059
-90,355
-90,62
-90,853
-91,054
-91,222
-91,36
-91,466
-91,542
-91,59
-91,61
-91,605
-91,577
-91,527
-91,459
-91,375
-91,277
-91,17
-91,055
-90,936
-90,815
-90,696
-90,582
-90,475
-90,379
-90,297
-90,231
-90,185
-90,162
-90,165
-90,197
-90,262
-90,361
-90,498
-90,675
-90,894
-91,156
-91,463
-91,816
-92,214
-92,658
-93,148
-93,681
-94,257
-94,873
-95,527
-96,214
-96,931
-97,675
-98,44
-99,221
-100,015
-100,815
-101,617
-102,414
-103,202
-103,974
-104,724
-105,446
-106,134
-106,781
-107,38
-107,925
-108,41
-108,828
-109,173
-109,44
-109,623
-109,718
-109,718
-109,62
-109,421
-109,117
-108,707
-108,187
-107,559
-106,823
-105,978
-105,029
-103,976
-102,824
-101,577
-100,239
-98,818
-97,317
-95,745
-94,109
-92,417
-90,678
-88,901
-87,097
-85,276
-83,452
-81,638
-79,846
-78,09
-76,384
-74,742
-73,177
-71,702
-70,328
-69,066
-67,928
-66,925
-66,067
-65,366
-64,833
-64,474
-64,299
-64,313
-64,524
-64,933
-65,541
-66,345
-67,344
-68,541
-69,941
-71,549
-73,359
-75,364
-77,556
-79,919
-82,432
-85,066
-87,779
-90,532
-93,283
-95,998
-98,651
-101,215
-103,655
-105,929
-107,992
-109,799
-111,331
-112,576
-113,516
-114,154
-114,518
-114,656
-114,656
-114,601
-114,543
-114,536
-114,635
-114,896
-115,39
-116,182
-117,315
-118,846
-120,833
-123,27
-126,09
-129,126
-132,112
-134,775
-136,845
-138,018
-137,949
-136,415
-133,427
-129,223
-124,162
-118,559
-112,697
-106,824
-101,284
-96,407
-91,374
-84,985
-76,833
-65,927
-52,754
-38,016
-18,818
6,784
40,819
85,223
136,345
190,467
243,819
291,413
332,245
364,78
387,892
401,844
403,658
392,353
366,577
324,539
269,58
204,028
132,964
64,947
4,834
-41,698
-72,646
-92,042
-102,738
-108,551
-111,782
-111,17
-107,02
-100,403
-92,828
-86,694
-83
-81,616
-82,151
-83,854
-86,003
-87,931
-88,853
-88,331
-86,385
-83,27
-79,406
-75,177
-70,882
-66,855
-63,455
-60,884
-59,179
-58,272
-57,996
-58,205
-58,797
-59,648
-60,643
-61,674
-62,626
-63,401
-63,92
-64,119
-63,956
-63,407
-62,454
-61,093
-59,339
-57,22
-54,775
-52,044
-49,058
-45,843
-42,426
-38,841
-35,125
-31,321
-27,468
-23,592
-19,712
-15,836
-11,97
-8,114
-4,257
-0,384
3,527
7,494
11,533
15,657
19,879
24,215
28,679
33,286
38,05
42,985
48,109
53,429
58,949
64,665
70,571
76,654
82,896
89,276
95,764
102,332
108,958
115,619
122,3
128,982
135,651
142,287
148,867
155,376
161,814
168,185
174,497
180,765
186,999
193,226
199,481
205,789
212,159
218,587
225,056
231,544
238,022
244,46
250,823
257,061
263,105
268,883
274,304
279,277
283,718
287,521
290,573
292,774
294,047
294,337
293,607
291,819
288,948
284,975
279,892
273,721
266,495
258,257
249,082
239,05
228,245
216,773
204,762
192,332
179,6
166,669
153,641
140,632
127,766
115,169
102,959
91,226
80,06
69,545
59,737
50,681
42,415
34,946
28,27
22,373
17,233
12,829
9,123
6,057
3,548
1,499
-0,178
-1,555
-2,706
-3,706
-4,615
-5,485
-6,358
-7,25
-8,178
-9,154
-10,182
-11,262
-12,384
-13,522
-14,633
-15,665
-16,573
-17,328
-17,902
-18,268
-18,408
-18,311
-17,975
-17,417
-16,649
-15,684
-14,536
-13,223
-11,766
-10,196
-8,544
-6,85
-5,145
-3,454
-1,797
-0,195
1,337
2,786
4,147
5,422
6,609
7,705
8,71
9,619
10,434
11,157
11,79
12,337
12,8
